-73 48 3 158 108 75 -1 -30
-29 77 37 152 142 137 32 25
-5 75 16 187 163 143 106 85
17 15 -5 163 182 127 93 83
42 13 36 216 179 144 74 106
25 83 25 221 155 120 100 75
37 75 51 219 249 148 71 97
53 61 54 236 222 157 103 147
37 115 30 201 183 164 123 95
-10 69 76 207 145 198 135 113
2 63 58 222 113 180 126 116
31 65 62 213 156 160 133 114
34 61 -13 180 148 171 103 114
51 68 -29 166 122 189 92 102
64 94 -52 164 118 171 99 90
54 65 -35 147 98 175 94 93
92 63 -1 158 133 124 117 101
93 49 -13 138 124 89 105 101
74 41 14 122 140 125 100 107
63 50 15 115 133 105 108 91
31 53 26 83 112 130 90 78
11 33 26 76 89 122 83 67
21 37 21 61 74 114 75 41
0 12 25 67 87 106 79 31
-7 -5 5 56 59 85 58 13
3 -14 -4 49 63 68 38 -2
-16 -12 -30 42 37 52 25 -17
-33 -13 -24 45 28 64 4 -27
-35 -21 -17 46 53 34 1 -28
-24 -22 -17 15 51 17 -8 -21
-26 -21 14 14 15 11 12 -7
-33 -26 10 15 20 5 27 -12
-43 -52 30 18 29 22 16 -4
-36 -44 23 29 11 7 18 -10
-47 -51 21 6 14 5 5 -20
-51 -58 32 1 9 12 -2 -7
-48 -53 28 2 0 6 1 -7
-47 -47 27 -3 5 11 1 -19
-41 -56 21 5 10 8 -3 -16
-50 -62 21 10 20 15 -4 -20
-47 -57 22 9 36 10 -12 -24
-40 -49 25 17 31 14 -16 -20
-49 -42 19 10 18 11 -17 -31
-50 -43 27 7 14 5 -14 -17
-39 -47 31 9 13 13 -5 -10
-30 -36 30 8 14 12 -9 -16
-32 -51 32 3 10 13 -8 -16
-31 -60 27 0 6 13 -5 -23
-26 -56 35 -9 -3 4 -8 -28
-24 -67 36 -12 -4 4 -18 -26
-26 -69 31 -11 3 1 -20 -24
-27 -66 37 -14 7 -3 -23 -35
-27 -59 41 -7 1 -5 -26 -45
-19 -55 45 -1 4 -13 -27 -38
-24 -53 46 -3 2 -6 -22 -42
-25 -51 43 -3 3 -10 -16 -35
-29 -48 44 -5 -10 -5 -16 -34
-31 -47 45 -4 -4 0 -20 -39
-29 -55 46 -2 -9 -6 -18 -36
-33 -59 38 0 -6 -6 -23 -45
-35 -61 39 -1 -11 -14 -36 -51
-31 -64 38 -3 -13 -12 -43 -53
-30 -58 28 2 -6 -11 -47 -55
-32 -50 33 7 -8 -13 -52 -59
-30 -52 35 2 -11 -12 -47 -55
-24 -51 26 2 -18 -18 -49 -55
-25 -52 27 -1 -23 -16 -46 -59
-26 -51 27 4 -17 -13 -41 -55
-25 -49 32 9 -18 -17 -45 -54
-27 -61 33 3 -14 -18 -50 -57
-26 -63 33 1 -19 -18 -51 -54
-18 -67 28 5 -21 -22 -54 -63
-21 -74 31 4 -23 -19 -52 -69
-17 -71 30 3 -23 -25 -50 -64
-17 -72 31 7 -26 -34 -56 -61
-18 -65 23 12 -20 -31 -48 -56
-22 -65 18 16 -15 -21 -50 -58
-26 -69 18 20 -9 -17 -54 -61
-23 -71 17 14 -20 -12 -49 -62
-18 -75 7 13 -26 -13 -57 -66
-21 -80 0 16 -28 -23 -58 -68
-27 -79 -1 13 -22 -23 -54 -66
-23 -70 10 19 -19 -28 -55 -61
-25 -58 17 21 -19 -23 -59 -64
-32 -61 20 18 -17 -19 -63 -60
-33 -63 6 19 -26 -23 -60 -66
-32 -55 1 18 -26 -15 -59 -70
-21 -49 7 21 -15 -19 -57 -55
-11 -46 13 32 -14 -26 -51 -46
-15 -49 6 36 -21 -27 -45 -50
-22 -60 8 33 -20 -24 -51 -51
-17 -50 7 34 -22 -23 -54 -54
-19 -55 6 29 -21 -19 -51 -55
-23 -69 -2 25 -18 -15 -54 -50
-21 -56 -7 22 -19 -27 -52 -52
-19 -52 3 30 -12 -23 -52 -49
-17 -53 6 38 -2 -21 -53 -45
-26 -43 5 32 -12 -21 -49 -48
-33 -51 16 32 -16 -16 -47 -37
-27 -61 14 29 -17 -25 -48 -36
-27 -43 15 35 -21 -28 -40 -40
-34 -47 10 41 -15 -22 -30 -32
-29 -52 9 38 -6 -18 -32 -31
-23 -40 19 38 -5 -13 -34 -39
-25 -42 17 44 -6 -12 -39 -31
-26 -45 5 41 -10 -10 -41 -27
-29 -45 0 38 0 -12 -39 -31
-25 -50 0 41 5 -18 -39 -31
-28 -36 -2 49 4 -20 -35 -27
-40 -28 0 53 3 -8 -27 -21
-35 -35 5 55 11 -7 -28 -18
-29 -35 14 46 11 -8 -29 -14
-33 -32 19 45 14 -9 -13 -12
-29 -32 9 49 13 -8 -9 -6
-30 -36 9 42 9 -3 -19 -3
-33 -35 14 38 2 -6 -21 -12
-30 -35 11 42 13 -7 -26 -5
-34 -43 19 43 15 -5 -27 -5
-32 -37 16 37 18 -7 -22 -18
-28 -33 16 33 14 -13 -26 -10
-30 -26 18 37 13 -16 -22 -10
-32 -25 15 34 4 -26 -20 -7
-30 -32 7 27 13 -26 -28 -6
-34 -31 10 23 18 -18 -30 -16
-34 -27 6 21 10 -22 -28 -14
-33 -37 15 18 10 -22 -28 -4
-37 -37 19 20 9 -19 -25 0
-36 -34 14 15 2 -22 -18 0
-40 -45 16 10 3 -20 -19 -8
-43 -40 17 8 2 -25 -23 -11
-41 -40 17 2 3 -29 -24 -12
-44 -49 19 1 -5 -21 -23 -9
-46 -42 17 2 -8 -21 -23 -8
-51 -49 25 2 -2 -20 -29 -11
-41 -50 29 12 0 -21 -27 -10
-38 -48 26 7 0 -30 -27 -12
-40 -46 23 2 3 -29 -32 -14
-41 -43 22 5 -6 -33 -28 -18
-41 -30 17 7 -10 -33 -33 -23
-41 -20 22 0 -11 -28 -34 -14
-32 -26 6 -6 -9 -25 -33 -14
-30 -33 5 -3 -7 -25 -37 -17
-26 -35 12 1 -8 -34 -31 -16
-30 -34 12 -1 -10 -34 -32 -14
-35 -49 19 0 -2 -31 -35 -13
-37 -56 16 -8 -1 -30 -25 -18
-41 -49 21 -8 -2 -24 -16 -13
-48 -48 29 -1 -3 -19 -16 -7
-43 -50 35 -7 -9 -15 -20 -11
-45 -56 31 -8 -18 -13 -16 -16
-46 -61 18 -14 -22 -16 -25 -16
-44 -57 21 -18 -9 -20 -26 -17
-42 -45 15 -16 -5 -18 -28 -22
-42 -45 12 -15 -6 -15 -27 -22
-47 -40 8 -15 -4 -16 -24 -23
-43 -39 15 -10 -3 -17 -25 -20
-33 -37 23 -8 -4 -16 -16 -25
-34 -29 24 -10 -5 -10 -18 -21
-28 -39 31 4 -1 -19 -19 -7
-27 -54 19 -7 -6 -32 -19 -13
-34 -51 18 -20 -5 -29 -23 -15
-36 -47 21 -12 -6 -28 -19 -20
-36 -53 19 -24 -8 -25 -20 -26
-35 -56 30 -25 -6 -20 -19 -19
-37 -49 21 -20 -9 -21 -22 -18
-34 -38 21 -19 -7 -17 -18 -8
-29 -44 23 -16 -6 -16 -16 -9
-33 -51 10 -22 -7 -24 -21 -19
-35 -55 3 -37 -9 -27 -22 -17
-35 -68 10 -37 -11 -25 -29 -20
-42 -64 22 -24 -11 -32 -23 -20
-51 -68 21 -31 -10 -21 -10 -13
-48 -64 33 -25 -8 -13 0 -10
-37 -46 45 -12 0 -19 1 -10
-34 -53 43 -25 -7 -7 -9 -11
-42 -67 25 -25 -25 -11 -14 -23
-45 -65 10 -28 -28 -21 -31 -25
-33 -58 17 -33 -13 -25 -36 -23
-26 -36 11 -11 -3 -28 -22 -21
-29 -32 11 -5 0 -22 -14 -9
-30 -44 17 -10 1 -17 -13 -17
-23 -46 20 -8 -8 -23 -26 -22
-22 -57 27 -8 -10 -29 -22 -19
-30 -56 10 -15 -13 -27 -15 -18
-32 -62 10 -20 -15 -27 -19 -12
-24 -68 23 -17 -8 -28 -19 -14
-30 -61 22 -13 -9 -28 -15 -11
-46 -60 22 -9 -11 -23 -11 -9
-45 -66 29 -16 -9 -13 -17 -16
-31 -56 35 -16 -10 -10 -15 -13
-30 -41 30 -13 -14 -13 -11 -7
-29 -41 25 -16 -9 -15 -11 -1
-29 -53 25 -21 -3 -15 -19 -7
-31 -59 18 -26 -8 -20 -25 -24
-35 -55 21 -19 -15 -26 -21 -22
-35 -53 22 -12 -12 -26 -16 -10
-32 -52 26 -15 -4 -22 -18 -20
-18 -45 33 -12 0 -15 -17 -9
-18 -44 37 -4 -9 -13 -7 -6
-24 -46 29 -7 -18 -23 -15 -11
-21 -61 30 -19 -21 -21 -25 -10
-20 -56 26 -20 -21 -17 -25 -27
-31 -46 23 -19 -28 -24 -28 -30
-33 -48 26 -15 -17 -12 -26 -9
-24 -39 34 -10 -7 -8 -20 -18
-22 -33 50 -5 -11 -13 -20 -19
-23 -42 53 3 -11 -16 -16 -15
-17 -34 33 0 -15 -23 -17 -16
-11 -31 27 -18 -17 -15 -15 -20
-7 -29 29 -20 -7 -13 -10 -16
-3 -19 42 -6 -5 -19 -9 3
-8 -15 36 3 -1 -6 1 2
-18 -20 47 2 -7 4 -1 -9
-12 -19 60 8 2 7 -8 -1
-4 -21 56 16 13 11 -7 -9
-2 -18 42 22 11 8 -7 -8
-13 -8 33 15 14 -4 -5 -13
-13 -1 34 3 11 -10 -4 -8
-14 0 44 15 5 -15 0 6
-17 0 48 17 16 -3 2 3
-22 -5 58 2 9 -2 7 -4
-14 -12 60 12 11 2 7 1
-11 -3 68 26 14 13 7 9
7 9 63 32 22 10 20 18
5 1 56 27 29 9 13 21
24 13 55 24 25 -3 7 23
26 35 49 27 27 -14 21 26
26 39 48 35 30 -1 18 37
29 50 36 50 40 18 30 41
43 57 37 49 54 44 42 50
55 60 36 54 56 50 57 54
63 60 28 58 67 52 58 63
64 48 11 43 84 56 56 63
69 53 14 34 67 48 51 54
62 56 6 20 40 41 42 57
47 55 3 11 26 40 39 50
65 53 1 22 35 38 37 57
62 38 0 17 32 31 38 58
59 39 4 0 20 22 38 51
57 29 1 -3 4 15 24 40
57 17 0 -1 -2 6 13 39
43 2 -6 -13 -16 -3 6 20
33 0 -17 -22 -22 -8 -5 16
23 -8 -20 -14 -19 -6 0 9
28 2 -15 -12 -29 -15 0 12
16 -8 0 -12 -23 -9 0 7
4 -9 2 -7 -26 -11 2 12
8 -10 -7 -14 -25 -10 0 4
5 -12 6 -14 -26 -4 2 10
0 -10 3 -24 -16 -15 1 3
-13 -5 10 -18 -10 -22 -8 8
-17 -11 6 -16 -16 -28 -9 2
-28 -21 22 -19 -25 -30 -16 -5
-43 -32 24 -27 -34 -33 -28 -13
-48 -47 26 -26 -38 -37 -38 -17
-48 -57 24 -26 -43 -47 -48 -20
-61 -63 20 -39 -52 -54 -47 -21
-73 -58 15 -39 -59 -49 -45 -32
-77 -67 11 -34 -61 -53 -62 -30
-76 -65 18 -39 -62 -50 -67 -28
-72 -61 13 -46 -66 -58 -56 -29
-75 -61 7 -46 -66 -54 -56 -32
-68 -66 7 -39 -68 -43 -59 -34
-59 -69 0 -41 -67 -43 -58 -30
-54 -73 5 -45 -58 -47 -64 -30
-57 -66 9 -46 -71 -57 -67 -26
-63 -64 11 -51 -72 -59 -65 -29
-64 -59 15 -52 -74 -65 -64 -33
-57 -61 6 -53 -78 -57 -65 -39
-50 -63 9 -51 -75 -58 -63 -36
-46 -59 15 -47 -73 -60 -58 -29
-35 -56 11 -49 -68 -56 -53 -22
-38 -55 4 -45 -73 -53 -55 -24
-35 -57 -1 -52 -73 -49 -50 -22
-33 -63 0 -53 -64 -49 -49 -19
-36 -70 5 -50 -69 -51 -49 -17
-37 -63 9 -47 -76 -57 -50 -23
-33 -58 12 -43 -70 -61 -42 -12
-34 -62 11 -55 -73 -55 -44 -22
-30 -54 8 -62 -70 -58 -49 -12
-29 -54 21 -70 -61 -55 -54 -8
-37 -55 8 -68 -79 -56 -65 -17
-45 -49 10 -71 -94 -66 -74 -26
-53 -50 5 -68 -91 -70 -69 -34
-37 -58 23 -64 -87 -73 -63 -49
-42 -71 21 -54 -74 -72 -70 -34
-49 -102 22 -53 -108 -93 -101 -56
-58 -48 55 -11 -101 -108 -104 -68
-102 -62 108 13 -98 -110 -133 -93
-93 -77 120 70 -55 -120 -158 -80
-105 -101 163 121 -5 -59 -112 -82
-86 -83 137 195 48 -58 -118 -122
-42 -65 139 170 77 -63 -96 -117
-21 -79 100 151 104 -36 -76 -111
65 -74 89 110 108 13 -53 -77
155 5 27 78 154 97 57 -46
195 74 10 64 244 250 171 67
306 161 -39 91 344 410 268 141
391 242 -61 180 441 606 413 251
496 367 -54 293 632 720 560 400
564 467 -62 386 780 847 734 464
584 554 -3 592 920 977 781 574
613 622 71 661 1039 1030 879 674
576 679 115 647 1009 1049 901 730
509 654 99 633 944 1006 866 746
458 618 133 530 815 849 780 689
371 546 128 481 648 620 672 628
310 463 178 337 462 413 503 563
215 368 147 161 288 167 376 469
105 358 163 16 114 18 267 373
-10 341 76 -107 -8 -99 139 311
-96 296 83 -287 -72 -133 56 259
-124 291 27 -363 -100 -137 2 193
-157 217 -28 -427 -119 -129 -17 149
-146 182 -68 -431 -147 -118 -48 147
-154 124 -95 -470 -184 -123 -46 108
-134 121 -157 -500 -204 -148 -77 80
-138 76 -150 -495 -217 -155 -56 58
-105 68 -168 -431 -225 -170 -57 43
-93 5 -141 -370 -225 -158 -70 32
-50 6 -130 -283 -196 -152 -88 -7
-67 -26 -97 -234 -216 -145 -70 -9
-40 -25 -85 -191 -173 -98 -67 -9
-29 -16 -62 -144 -138 -62 -27 -2
-20 -4 -58 -108 -91 -21 -12 9
-25 -14 -53 -95 -108 -8 3 28
-13 4 -39 -96 -78 -19 1 22
-18 -5 -38 -105 -97 -41 3 5
-11 0 -45 -104 -104 -50 -9 10
-16 -27 -58 -123 -113 -58 -10 1
-18 -31 -57 -120 -122 -51 -21 9
-8 -43 -68 -117 -127 -69 -14 7
-13 -47 -45 -102 -121 -66 -8 6
-24 -43 -46 -100 -128 -76 0 1
-22 -40 -28 -96 -130 -64 -3 0
-30 -38 -28 -81 -128 -61 -4 0
-26 -44 -5 -86 -133 -61 -6 -2
-38 -46 -2 -68 -117 -66 -5 -12
-44 -43 21 -54 -114 -63 -17 -14
-31 -51 13 -50 -106 -50 -26 -9
-39 -46 5 -52 -97 -35 -24 -18
-38 -47 8 -47 -96 -44 -30 -30
-40 -56 0 -40 -98 -50 -32 -35
-45 -57 0 -40 -94 -61 -32 -41
-38 -53 -5 -45 -95 -72 -24 -45
-27 -37 0 -42 -80 -63 -27 -30
-34 -42 5 -39 -65 -56 -20 -26
-38 -35 3 -39 -56 -53 -18 -30
-38 -49 7 -43 -58 -39 -19 -20
-41 -64 -2 -47 -62 -42 -20 -27
-45 -69 -5 -56 -68 -47 -22 -23
-51 -70 -1 -57 -65 -44 -17 -25
-53 -68 0 -56 -79 -50 -16 -28
-55 -68 8 -53 -85 -48 -13 -21
-48 -72 1 -54 -77 -51 -16 -27
-48 -71 2 -53 -71 -48 -24 -27
-51 -71 -13 -55 -59 -43 -26 -30
-49 -74 -15 -59 -52 -46 -29 -40
-48 -67 -17 -56 -63 -50 -35 -33
-47 -68 -21 -58 -67 -50 -33 -29
-48 -71 -21 -60 -61 -44 -28 -32
-50 -73 -12 -62 -65 -41 -27 -31
-48 -81 -9 -61 -71 -43 -23 -31
-51 -84 -20 -60 -78 -43 -20 -34
-51 -87 -27 -66 -83 -44 -24 -42
-47 -85 -16 -64 -75 -47 -27 -34
-44 -81 -20 -62 -64 -46 -27 -32
-52 -82 -22 -64 -64 -42 -27 -39
-50 -77 -22 -60 -64 -37 -27 -39
-45 -76 -21 -59 -70 -42 -30 -36
-36 -75 -20 -61 -73 -40 -29 -36
-34 -78 -33 -62 -78 -51 -26 -40
-35 -89 -40 -71 -84 -53 -37 -43
-36 -99 -43 -72 -88 -55 -40 -46
-40 -96 -45 -71 -89 -63 -38 -50
-38 -84 -40 -64 -82 -55 -35 -42
-39 -87 -40 -49 -65 -50 -27 -42
-46 -90 -38 -48 -55 -46 -19 -35
-47 -81 -23 -38 -59 -43 -8 -31
-55 -79 -24 -39 -61 -42 -10 -30
-60 -84 -16 -41 -58 -39 -11 -29
-63 -80 -9 -48 -58 -35 -9 -34
-72 -71 -2 -52 -67 -33 -11 -33
-74 -73 -5 -52 -75 -38 -12 -25
-69 -78 -7 -57 -67 -42 -22 -32
-62 -74 -5 -49 -66 -59 -20 -39
-60 -68 -16 -47 -60 -69 -32 -39
-54 -65 -21 -45 -65 -77 -39 -24
-43 -53 -29 -44 -59 -80 -31 -20
-27 -39 -39 -49 -56 -80 -27 -14
-23 -37 -42 -33 -41 -74 -10 -4
-15 -29 -45 -28 -32 -59 0 14
-3 -22 -40 -29 -26 -49 11 15
3 -23 -37 -19 -25 -36 13 25
0 -37 -41 -18 -20 -29 7 18
0 -38 -37 -12 -25 -31 12 20
1 -46 -36 -16 -24 -25 8 13
11 -50 -37 -12 -31 -30 9 24
13 -52 -41 -10 -25 -35 11 16
19 -45 -36 -8 -25 -33 22 27
20 -45 -39 -9 -23 -23 27 24
29 -44 -40 -17 -27 -14 32 37
46 -34 -45 -15 -24 -10 43 43
57 -21 -42 -16 -17 -1 49 56
62 -17 -44 -18 -5 -3 55 55
70 -9 -44 -20 0 -5 67 61
76 4 -34 -8 2 7 73 69
79 1 -29 -16 0 17 80 89
75 20 -27 -19 9 26 93 90
81 41 -33 -11 20 32 109 96
89 46 -30 -1 25 42 126 104
99 47 -38 -1 37 50 147 122
115 56 -37 9 48 57 149 131
134 65 -37 15 63 78 157 140
122 71 -37 24 73 87 168 154
122 79 -57 16 74 93 177 162
136 95 -62 16 74 112 189 174
149 102 -62 29 81 131 196 183
144 111 -68 45 98 120 208 182
135 113 -71 46 103 131 215 181
138 121 -66 53 103 139 216 189
151 123 -67 58 112 151 222 198
152 127 -73 60 126 161 232 209
154 130 -80 60 132 168 235 207
148 136 -75 68 136 167 240 219
160 151 -72 64 140 166 253 221
171 160 -58 79 142 169 267 236
174 169 -61 93 146 178 274 243
174 173 -60 83 158 197 274 248
178 166 -62 93 166 205 262 240
171 167 -70 104 167 205 262 243
162 162 -81 118 173 207 263 232
167 163 -76 127 187 202 266 231
174 173 -66 134 206 213 267 223
161 174 -76 145 214 226 272 231
145 160 -72 153 220 232 269 224
144 170 -61 152 204 235 278 224
143 187 -52 159 215 237 260 213
142 176 -42 165 222 233 255 212
127 171 -41 172 217 222 250 195
111 160 -29 172 209 215 225 183
104 147 -12 173 203 209 203 167
92 137 -14 165 193 201 197 157
74 116 -19 165 180 185 180 137
66 104 -29 154 160 173 167 126
68 98 -17 149 152 158 153 117
67 78 -17 139 134 128 141 108
57 84 -17 133 125 119 138 92
48 65 -23 126 123 111 122 83
51 46 -12 120 125 103 108 88
48 49 -9 99 105 100 101 89
38 41 -13 99 92 87 88 74
33 21 -13 96 83 72 79 62
36 24 -2 90 80 61 80 56
43 19 0 90 71 55 75 55
32 7 -6 81 58 55 72 56
18 -4 -11 61 47 49 58 49
20 -21 -13 53 45 37 47 37
24 -15 -28 39 40 32 48 27
13 -6 -15 44 47 34 46 30
16 -14 -13 53 50 25 39 26
19 -12 -3 39 51 18 39 24
11 -3 16 42 49 17 40 28
2 2 3 45 40 12 39 31
4 -7 4 26 32 24 27 27
2 -29 -4 16 23 13 10 9
-6 -35 -15 8 0 -8 -1 -2
-15 -40 -7 0 -7 -8 -3 -5
-14 -46 -4 10 1 -19 -1 -11
-13 -46 -12 9 2 -24 2 -7
-13 -45 -20 -13 -5 -24 -2 -14
-15 -35 -13 -4 -8 -32 -11 -15
-16 -37 -15 -9 -15 -34 -17 -11
-28 -47 -19 -18 -14 -30 -21 -20
-23 -35 -6 -4 -15 -33 -15 -11
-9 -18 -5 -5 -4 -27 -7 -4
-10 -18 2 -5 5 -13 -5 -7
-10 -24 2 0 0 -18 0 -2
-11 -35 3 -8 -7 -19 -4 -7
-19 -45 1 -15 -18 -29 -18 -20
-23 -46 -2 -13 -22 -36 -18 -23
-19 -38 -6 -14 -15 -33 -12 -16
-20 -34 -12 -14 -13 -30 -8 -21
-22 -37 0 -6 -8 -29 -9 -17
-17 -39 6 -9 -6 -31 -9 -14
-29 -41 -1 -11 -10 -24 -8 -21
-33 -44 1 -11 -17 -20 -13 -12
-23 -36 1 -13 -8 -23 -11 -14
-18 -25 0 -8 -10 -20 -10 -12
-19 -23 0 -4 -14 -21 -6 -7
-20 -30 0 -3 -9 -26 -9 -19
-26 -37 0 -9 -16 -28 -20 -21
-20 -34 4 -9 -17 -28 -16 -20
-19 -23 1 -5 -18 -22 -13 -19
-23 -32 -2 -11 -17 -22 -16 -23
-26 -42 1 -7 -17 -26 -17 -25
-23 -38 8 -5 -14 -28 -11 -20
-30 -42 13 -8 -13 -23 -11 -22
-35 -38 11 -9 -21 -18 -13 -20
-28 -28 15 -7 -15 -17 -4 -20
-21 -19 20 -1 -11 -14 1 -14
-14 -15 19 -1 -9 -16 5 -5
-15 -23 19 -1 -1 -12 3 -9
-12 -30 16 -3 0 -12 1 -12
-16 -26 17 2 -6 -20 1 -14
-20 -23 13 0 -3 -19 1 -10
-23 -28 7 -7 4 -10 0 -12
-23 -30 9 -1 0 -5 4 -7
-18 -31 14 -3 -11 -18 7 -9
-26 -35 15 -4 -12 -19 2 -13
-29 -41 12 -6 -8 -17 -1 -8
-26 -37 14 -6 -9 -14 2 -11
-23 -26 15 -5 -13 -11 2 -6
-24 -21 16 -6 -11 -10 -1 -5
-25 -18 16 -3 0 -8 0 -7
-21 -19 18 -6 0 -7 5 -4
-15 -13 27 0 1 -7 14 -5
-14 -8 29 7 3 -4 14 -3
-13 -13 29 13 10 0 9 -5
-12 -19 22 5 7 -4 12 -3
-19 -20 12 -6 0 -1 11 -1
-16 -20 14 -2 0 -1 11 1
-14 -19 15 -7 0 -10 18 -3
-14 -14 21 -13 3 -3 18 0
-15 -18 17 -8 2 -1 13 6
-12 -15 15 -9 2 -3 18 5
-10 -13 17 -8 1 0 20 4
-15 -17 12 -7 -1 5 18 6
-14 -17 9 -20 0 1 17 5
-12 -21 16 -20 0 2 12 6
-12 -17 23 -8 3 -3 17 7
-13 -19 19 -18 0 0 25 8
-12 -17 25 -18 5 10 28 11
-4 -10 26 -8 10 5 29 5
-3 -9 19 -15 -2 5 21 1
-4 -21 12 -14 -10 0 16 4
0 -24 6 -20 -8 -8 10 0
5 -19 7 -24 -2 -4 6 -5
3 -11 1 -3 4 -7 11 -4
4 -10 -3 -9 4 -13 12 4
0 -15 -3 -31 0 -10 11 0
-1 -14 3 -23 -8 -8 9 -4
-3 -19 12 -24 -14 -17 13 -3
-12 -20 13 -32 -11 -10 12 2
-8 -24 19 -29 -12 -10 8 10
7 -12 15 -33 -8 -10 19 7
0 -12 11 -27 -2 3 22 12
-7 -29 6 -23 -9 0 22 14
-7 -32 9 -49 -18 1 19 1
-7 -31 17 -50 -25 6 11 -5
-9 -29 19 -35 -26 -6 16 -1
-10 -23 16 -40 -16 -2 28 7
-5 -15 18 -34 -10 4 24 7
0 -14 22 -26 -2 -2 17 -2
-4 -15 20 -36 -9 -2 14 -4
-7 -33 12 -35 -16 -10 5 -5
-7 -24 13 -40 -19 -13 2 -6
5 -2 13 -43 -13 -8 6 -2
6 -2 19 -6 -5 -8 16 10
3 -5 8 -9 -12 -14 27 11
8 -14 2 -35 -22 -17 18 0
10 -25 3 -28 -27 -15 -3 -8
4 -31 -10 -44 -35 -22 -3 -12
-5 -34 -13 -51 -33 -17 -6 -12
-7 -33 -4 -35 -30 -23 -11 -7
7 -14 4 -30 -19 -17 0 3
0 -17 13 -24 -2 -10 9 2
-17 -27 11 -18 -16 -19 8 -2
-18 -30 13 -46 -41 -13 3 -1
-9 -38 11 -58 -51 -10 -4 -10
-7 -37 4 -49 -58 -21 -3 0
-6 -37 -8 -57 -41 -20 9 5
-1 -29 1 -50 -28 -23 9 0
13 -20 15 -38 -23 -28 7 2
1 -28 12 -44 -23 -19 0 -8
-16 -45 -4 -37 -42 -22 -9 -18
-13 -37 -12 -43 -47 -21 -14 -21
6 -19 -2 -49 -28 -29 -23 -12
18 -8 5 -25 -31 -46 -8 0
7 -13 -10 -18 -41 -47 1 -2
-3 -31 -6 -27 -43 -48 -13 -5
0 -34 0 -32 -47 -46 -27 -15
-2 -35 -9 -38 -46 -43 -26 -19
-10 -40 -19 -39 -46 -34 -23 -16
-11 -33 -23 -42 -50 -36 -19 -11
1 -22 -7 -37 -47 -42 -15 -4
3 -28 0 -34 -45 -48 -16 -3
-15 -21 -3 -29 -49 -45 -12 -8
-17 -30 7 -33 -38 -39 -15 -5
-4 -41 8 -42 -33 -37 -25 -6
-13 -22 10 -37 -42 -34 -21 -2
-19 -36 -3 -36 -43 -39 -10 -1
-16 -48 1 -36 -40 -38 -14 -7
-4 -37 19 -34 -34 -35 -17 -12
-1 -34 11 -37 -42 -39 -19 -15
-9 -38 -1 -33 -56 -36 -23 -8
-19 -44 -10 -37 -57 -37 -33 -14
-9 -44 -9 -46 -49 -50 -37 -20
-2 -33 -10 -47 -51 -58 -30 -21
-10 -32 -11 -36 -47 -53 -35 -18
-9 -40 -7 -31 -45 -54 -39 -19
-8 -42 -1 -38 -51 -50 -38 -23
-9 -45 10 -31 -57 -45 -34 -18
-9 -40 0 -25 -61 -48 -28 -17
-4 -53 2 -33 -58 -45 -29 -16
1 -59 1 -33 -60 -54 -35 -19
-5 -52 -8 -42 -66 -61 -41 -21
-12 -50 -4 -39 -59 -51 -36 -22
-13 -45 -4 -25 -52 -48 -38 -27
-10 -38 2 -28 -42 -42 -38 -20
-4 -25 5 -29 -39 -38 -28 -12
7 -27 -6 -22 -40 -43 -27 -12
0 -39 -3 -27 -45 -40 -33 -20
1 -41 -7 -28 -47 -39 -32 -22
7 -42 -1 -20 -54 -49 -35 -16
9 -38 3 -21 -50 -50 -30 -5
4 -41 1 -17 -38 -47 -28 -8
9 -43 -2 -13 -34 -43 -26 -6
13 -40 5 -25 -43 -35 -20 -12
16 -37 -6 -23 -55 -38 -31 -13
19 -46 -12 -29 -49 -41 -37 -7
13 -45 -11 -25 -46 -32 -29 -17
0 -41 -9 -17 -55 -39 -31 -17
-3 -40 -1 -16 -38 -29 -35 -14
4 -37 12 -5 -21 -26 -25 -16
11 -32 8 0 -20 -23 -13 -13
1 -15 6 3 -20 -13 -9 -14
6 1 14 0 -10 -10 -5 0
4 -2 22 -2 -22 -7 0 7
2 -1 24 -9 -21 -9 0 1
-11 -2 35 -5 -18 -16 6 5
-2 4 31 -1 -7 -6 7 11
-5 10 44 -1 0 7 0 7
-5 3 43 -13 -10 1 -1 7
-9 0 29 -21 -26 -8 -6 13
3 2 28 -19 -26 -21 -10 8
11 10 24 -15 -30 -35 0 6
23 21 18 -16 -34 -24 -1 16
14 23 12 -3 -30 -16 0 23
33 23 19 -5 -19 -3 5 35
48 38 13 1 -12 9 20 34
25 34 14 4 -5 22 15 33
23 22 9 -2 -3 28 15 35
36 28 -8 -10 -14 13 12 28
32 34 -11 -25 -27 -1 8 20
25 38 -12 -39 -42 -8 7 25
23 39 -22 -46 -27 -11 4 25
13 26 -21 -54 -32 -12 -9 10
22 36 -33 -61 -54 -19 -13 19
2 37 -38 -63 -49 -25 -12 7
7 47 -29 -49 -46 -21 -14 10
23 63 -28 -41 -42 -21 -8 13
21 69 -23 -43 -37 -22 -9 6
14 66 -20 -43 -55 -26 -17 13
7 60 -19 -49 -61 -23 -24 10
-6 49 -21 -49 -60 -24 -32 0
0 48 -21 -52 -70 -28 -28 2
-2 36 -27 -53 -65 -32 -27 -6
-16 22 -24 -53 -55 -40 -37 -13
-7 16 -15 -59 -61 -47 -40 -11
-14 15 -11 -64 -73 -52 -29 -10
-23 12 -13 -71 -74 -58 -35 -19
-21 -1 -24 -72 -78 -45 -48 -20
-31 -11 -34 -73 -78 -41 -47 -30
-30 -4 -28 -78 -83 -51 -60 -28
-36 -2 -20 -81 -91 -57 -60 -18
-43 0 -22 -80 -94 -68 -57 -26
-42 1 -15 -84 -98 -69 -55 -31
-43 -6 -22 -89 -100 -58 -48 -30
-40 -12 -25 -92 -98 -60 -53 -33
-37 -10 -16 -82 -101 -66 -62 -23
-38 -8 -24 -83 -103 -69 -58 -23
-42 -10 -28 -84 -107 -69 -60 -29
-36 -12 -33 -88 -106 -65 -54 -31
-33 -30 -24 -92 -86 -69 -56 -36
-38 -39 -27 -93 -100 -68 -63 -27
-42 -31 -25 -94 -107 -71 -67 -26
-46 -18 -13 -87 -100 -81 -55 -21
-40 -16 -20 -95 -109 -71 -56 -25
-44 -5 -25 -91 -101 -68 -59 -17
-37 -7 -4 -101 -88 -64 -61 -21
-33 -9 -16 -96 -108 -68 -75 -20
-46 0 -6 -97 -123 -88 -80 -29
-55 3 -4 -98 -122 -97 -73 -42
-43 -23 7 -89 -119 -91 -71 -50
-49 -30 11 -64 -94 -88 -83 -51
-51 -51 16 -51 -122 -95 -101 -68
-53 -14 42 -11 -110 -108 -96 -53
-99 -26 90 19 -85 -109 -120 -87
-78 -24 115 73 -46 -115 -139 -81
-82 -48 151 107 -9 -82 -100 -72
-69 -36 109 161 30 -76 -105 -115
1 -24 105 141 67 -52 -87 -103
47 -40 66 138 128 0 -50 -82
117 -14 50 127 168 73 -13 -32
210 81 5 123 222 171 105 9
260 143 -9 116 324 311 230 113
363 230 -36 137 401 447 314 204
421 302 -62 197 452 594 430 285
463 388 -45 299 580 652 532 391
507 474 -33 354 694 725 659 440
522 550 27 525 805 829 686 537
529 607 87 601 906 883 771 638
482 656 121 560 876 895 802 684
410 634 100 520 788 827 777 679
371 580 129 392 643 661 675 617
293 514 112 313 469 437 551 541
229 451 134 176 292 227 399 472
154 364 74 12 141 17 276 400
82 348 83 -115 1 -103 170 316
-10 337 10 -201 -98 -187 75 257
-91 277 4 -339 -141 -192 20 211
-101 261 -31 -383 -166 -190 -15 146
-114 201 -69 -426 -170 -171 -33 115
-103 163 -106 -422 -179 -153 -64 126
-124 116 -121 -439 -211 -153 -53 87
-97 108 -170 -451 -223 -174 -81 61
-96 71 -154 -432 -229 -182 -78 35
-68 67 -161 -369 -236 -198 -83 24
-69 8 -134 -317 -250 -184 -92 15
-33 15 -118 -245 -224 -169 -113 -32
-45 -7 -85 -200 -218 -146 -89 -38
-22 -15 -76 -157 -156 -88 -76 -25
-14 -10 -62 -114 -135 -66 -46 -22
-2 2 -54 -93 -102 -43 -39 -13
-10 -7 -52 -85 -117 -43 -26 -4
-6 4 -38 -90 -102 -57 -33 -8
-7 -3 -36 -105 -113 -74 -31 -18
-4 5 -34 -94 -119 -84 -30 -10
-8 -17 -45 -107 -121 -90 -28 -13
-10 -18 -38 -109 -127 -76 -37 -11
0 -26 -46 -99 -131 -88 -30 -15
-5 -33 -28 -91 -141 -85 -27 -13
-17 -34 -27 -88 -141 -94 -25 -19
-14 -32 -13 -78 -136 -91 -30 -22
-12 -29 -14 -65 -131 -89 -33 -22
-12 -32 2 -67 -127 -91 -33 -24
-19 -33 1 -55 -113 -99 -33 -32
-26 -30 12 -52 -116 -87 -45 -34
-13 -36 5 -53 -112 -73 -52 -29
-23 -36 -8 -57 -106 -65 -44 -31
-24 -33 -9 -52 -99 -67 -49 -38
-19 -38 -14 -42 -95 -76 -47 -45
-20 -35 -13 -43 -89 -80 -44 -44
-19 -37 -22 -51 -90 -79 -40 -44
-17 -31 -19 -52 -83 -75 -44 -41
-19 -32 -10 -52 -74 -67 -34 -33
-20 -25 -14 -51 -68 -62 -36 -37
-19 -38 -7 -52 -73 -55 -40 -33
-23 -52 -15 -50 -75 -62 -36 -39
-24 -54 -14 -53 -79 -66 -47 -42
-31 -55 -6 -57 -78 -64 -49 -47
-36 -55 -17 -57 -82 -61 -52 -49
-40 -58 -18 -50 -85 -60 -52 -52
-31 -51 -30 -52 -90 -66 -50 -64
-23 -44 -25 -53 -81 -65 -57 -50
-26 -50 -28 -55 -70 -66 -55 -50
-37 -54 -35 -59 -70 -60 -51 -66
-41 -55 -32 -51 -75 -60 -57 -55
-36 -56 -31 -57 -70 -58 -60 -54
-35 -56 -31 -66 -70 -48 -52 -59
-38 -64 -28 -61 -70 -47 -45 -59
-38 -67 -17 -56 -80 -49 -46 -59
-38 -65 -16 -57 -88 -54 -47 -55
-38 -67 -15 -61 -83 -55 -52 -57
-33 -54 -22 -61 -77 -51 -48 -55
-36 -56 -34 -61 -67 -43 -47 -62
-39 -69 -35 -60 -59 -47 -53 -69
-31 -58 -36 -59 -72 -50 -58 -66
-34 -60 -44 -63 -82 -46 -59 -65
-34 -64 -50 -64 -81 -44 -56 -65
-25 -49 -44 -63 -72 -43 -55 -64
-26 -53 -45 -63 -80 -42 -51 -67
-35 -59 -55 -65 -91 -48 -53 -68
-39 -66 -44 -67 -82 -55 -54 -76
-37 -60 -35 -58 -74 -49 -48 -74
-39 -43 -34 -43 -69 -39 -44 -66
-45 -34 -28 -44 -54 -26 -38 -52
-34 -33 -19 -40 -58 -18 -27 -46
-23 -36 -29 -42 -70 -29 -29 -50
-30 -42 -26 -41 -68 -33 -29 -51
-30 -36 -34 -44 -67 -41 -26 -54
-31 -32 -40 -57 -72 -39 -40 -60
-27 -38 -40 -59 -75 -35 -40 -50
-33 -29 -55 -60 -70 -43 -39 -56
-41 -22 -45 -46 -63 -46 -43 -51
-25 -20 -41 -33 -48 -51 -41 -53
-14 -14 -47 -40 -56 -63 -45 -46
-13 -10 -41 -39 -64 -69 -37 -35
0 -3 -54 -32 -60 -68 -27 -27
4 -3 -52 -24 -47 -51 -29 -24
5 -5 -50 -23 -53 -38 -22 -13
11 -4 -53 -24 -56 -40 -16 -9
23 -3 -57 -9 -54 -34 -11 -1
32 -10 -65 -16 -42 -26 -12 -18
42 -10 -66 -7 -45 -31 -8 -11
39 -15 -78 -9 -37 -36 -17 -9
46 -16 -79 -9 -34 -41 -17 1
52 -2 -84 -4 -19 -43 -8 -1
55 14 -74 -1 -4 -30 2 7
55 14 -59 5 1 -15 20 20
74 10 -73 0 5 -10 36 41
85 18 -64 5 6 6 42 39
99 32 -54 11 4 19 52 51
94 25 -53 8 9 14 53 55
97 29 -63 8 5 11 59 60
113 35 -66 9 0 20 59 61
121 24 -64 11 1 36 65 75
108 37 -76 14 23 37 74 69
113 51 -80 17 39 44 87 78
124 60 -80 26 46 50 99 85
136 71 -79 25 55 57 108 96
144 74 -73 26 66 72 121 108
158 83 -78 33 74 93 132 115
155 89 -74 42 74 92 133 123
161 99 -85 24 81 95 139 132
166 119 -79 31 90 106 156 150
176 120 -78 39 90 122 167 161
177 130 -74 42 99 125 178 161
176 127 -78 50 107 134 175 151
164 130 -82 60 102 139 177 147
172 133 -92 59 106 144 194 166
182 143 -100 63 116 145 193 178
192 157 -96 68 132 155 192 172
181 157 -104 66 141 155 204 187
187 158 -121 63 146 160 209 182
198 164 -110 68 142 174 216 195
209 176 -113 82 157 192 223 201
202 187 -103 96 177 190 229 212
192 193 -104 102 178 195 226 208
186 188 -93 99 172 201 217 205
185 180 -98 114 176 214 205 190
183 175 -94 114 183 212 215 181
175 169 -96 118 195 213 206 171
165 175 -97 131 200 216 197 171
156 178 -78 134 205 218 198 160
139 174 -67 128 183 211 201 158
124 188 -67 135 181 203 179 143
129 177 -51 115 171 205 166 128
123 163 -46 120 165 201 148 108
107 157 -50 122 161 180 129 101
103 150 -41 118 165 168 114 85
100 140 -24 114 151 154 107 80
88 136 -22 111 144 140 91 63
73 115 -23 102 129 133 82 58
70 100 -32 107 120 115 74 48
64 97 -23 92 96 101 68 26
61 101 -7 85 104 109 58 26
58 81 -12 87 100 96 50 25
52 68 -19 84 93 80 41 15
43 56 -22 57 72 69 25 10
34 58 -14 52 68 60 8 -9
25 51 -13 47 51 46 -2 -14
23 42 -15 44 45 46 -4 -17
25 44 -12 45 37 36 -10 -22
21 43 -4 39 32 32 -11 -17
19 29 0 32 28 29 -15 -19
21 31 -7 28 21 20 -18 -28
24 18 -13 15 17 11 -22 -29
20 6 -9 10 15 1 -30 -33
11 12 2 11 9 -6 -34 -31
6 8 -1 2 10 -5 -34 -30
2 5 10 -1 7 -5 -36 -34
-5 11 18 1 9 -6 -43 -45
-2 8 16 -2 4 -5 -56 -49
-7 -4 3 -1 -8 -10 -63 -56
-18 -8 -4 -10 -25 -22 -72 -65
-14 -9 0 -22 -23 -27 -75 -65
-13 -1 -8 -17 -21 -34 -70 -62
-20 2 -4 -15 -16 -31 -71 -60
-23 -2 3 -17 -17 -37 -66 -58
-27 -4 1 -26 -19 -37 -69 -63
-27 -5 19 -20 -24 -30 -70 -59
-30 -6 9 -16 -24 -31 -67 -65
-32 -13 9 -25 -27 -31 -76 -68
-28 -13 6 -24 -33 -40 -80 -68
-29 -12 2 -28 -30 -42 -85 -66
-31 -10 10 -23 -27 -39 -89 -67
-33 -5 6 -12 -31 -37 -86 -73
-32 -4 5 -12 -32 -41 -88 -74
-30 -4 11 -13 -32 -43 -85 -73
-30 -6 4 -7 -28 -41 -86 -75
-31 -12 1 -4 -26 -42 -91 -77
-32 -18 6 -4 -25 -38 -97 -79
-31 -19 12 -3 -28 -47 -94 -79
-30 -18 8 -10 -33 -48 -91 -80
-43 -24 2 -11 -29 -39 -91 -71
-37 -17 3 -10 -28 -47 -87 -66
-31 -14 10 -17 -38 -55 -86 -73
-39 -20 15 -13 -39 -55 -90 -77
-44 -25 15 -7 -37 -56 -95 -77
-42 -22 15 -6 -35 -48 -94 -78
-39 -17 15 -5 -38 -42 -99 -79
-41 -19 11 -7 -40 -42 -104 -76
-39 -20 2 -10 -33 -46 -101 -76
-34 -21 3 -6 -32 -53 -103 -77
-31 -18 6 -12 -36 -59 -103 -80
-36 -17 5 -15 -45 -62 -102 -86
-39 -22 13 -2 -42 -58 -104 -79
-31 -19 16 -2 -35 -59 -103 -76
-26 -13 11 -7 -41 -56 -102 -82
-31 -21 3 -3 -41 -57 -105 -81
-31 -25 -2 -4 -37 -59 -105 -85
-26 -20 1 -5 -36 -56 -107 -88
-30 -21 5 -1 -38 -56 -109 -87
-33 -20 6 -6 -40 -53 -105 -81
-37 -25 9 -5 -36 -56 -104 -82
-43 -31 10 0 -35 -62 -102 -82
-44 -28 13 -6 -45 -62 -100 -84
-49 -26 9 -7 -46 -59 -99 -86
-44 -30 8 -8 -45 -60 -110 -83
-33 -26 11 -13 -45 -61 -112 -81
-36 -17 6 -14 -38 -62 -105 -81
-35 -12 4 -10 -35 -60 -103 -77
-31 -12 4 -7 -35 -52 -103 -75
-34 -17 6 -6 -36 -48 -107 -81
-32 -11 9 -1 -35 -52 -105 -82
-30 -10 9 -2 -32 -52 -103 -76
-28 -10 11 0 -28 -52 -99 -80
-22 -8 8 -7 -27 -53 -96 -75
-27 -6 3 -10 -29 -50 -87 -69
-26 -10 1 -8 -30 -51 -87 -67
-25 -16 2 -10 -26 -48 -91 -67
-30 -14 0 -13 -24 -45 -86 -75
-37 -16 -2 -10 -32 -48 -90 -72
-32 -12 0 -15 -28 -50 -86 -63
-29 -8 0 -15 -24 -50 -85 -65
-33 -6 -2 -15 -27 -43 -90 -66
-38 -8 -9 -20 -27 -45 -93 -70
-41 -12 -8 -27 -35 -53 -103 -72
-42 -12 -3 -34 -38 -59 -105 -74
-51 -12 -3 -34 -45 -54 -103 -78
-54 -7 2 -34 -44 -57 -99 -78
-50 -3 9 -30 -37 -56 -98 -70
-37 0 14 -30 -36 -51 -97 -67
-31 0 14 -30 -43 -57 -97 -75
-33 -2 7 -29 -46 -51 -99 -71
-21 -1 1 -35 -46 -59 -107 -71
-14 6 -5 -37 -50 -58 -106 -78
-16 8 -5 -36 -47 -59 -106 -76
-21 8 -8 -26 -36 -59 -99 -79
-20 8 -5 -23 -36 -50 -94 -74
-19 2 -4 -24 -39 -47 -95 -82
-30 -4 0 -26 -37 -49 -102 -86
-35 -13 -4 -31 -47 -55 -100 -81
-34 -19 -11 -37 -42 -61 -97 -81
-34 -15 -8 -42 -47 -61 -102 -75
-40 -5 -8 -38 -52 -52 -92 -83
-50 -12 -3 -27 -44 -53 -98 -76
-46 -15 0 -38 -43 -54 -97 -68
-39 -3 -3 -54 -58 -50 -95 -77
-45 -7 -5 -48 -56 -46 -105 -81
-43 -8 -12 -45 -47 -46 -107 -85
-40 1 -18 -46 -50 -50 -109 -88
-36 3 -15 -47 -49 -56 -120 -92
-33 6 -13 -50 -55 -57 -123 -86
-35 7 -16 -50 -50 -58 -112 -88
-40 -9 -18 -51 -57 -69 -120 -96
-35 -7 -17 -61 -75 -65 -115 -97
-34 -4 -17 -58 -75 -61 -111 -101
-29 -11 -17 -47 -72 -62 -117 -93
-20 0 -18 -50 -65 -65 -106 -87
-20 5 -22 -52 -57 -64 -102 -91
-19 0 -16 -51 -56 -66 -107 -89
-28 -8 -18 -55 -60 -61 -110 -91
-39 -20 -30 -57 -64 -65 -118 -101
-41 -19 -30 -59 -70 -69 -125 -105
-42 -11 -16 -61 -65 -69 -117 -99
-44 -13 -5 -47 -60 -79 -111 -95
-51 -19 -14 -46 -69 -74 -107 -92
-54 -27 -15 -67 -83 -75 -115 -95
-54 -30 -14 -68 -86 -85 -126 -102
-51 -26 -26 -69 -92 -84 -132 -98
-49 -27 -27 -68 -88 -78 -127 -103
-50 -17 -27 -62 -82 -76 -124 -99
-37 -5 -21 -62 -80 -67 -122 -88
-27 0 -14 -50 -69 -65 -114 -90
-34 -1 -18 -44 -73 -76 -116 -90
-30 -11 -15 -52 -72 -73 -119 -92
-28 -25 -22 -58 -81 -83 -130 -107
-34 -25 -27 -58 -86 -92 -137 -106
-32 -23 -35 -59 -84 -92 -130 -97
-33 -22 -38 -58 -77 -91 -120 -102
-31 -17 -18 -54 -69 -88 -113 -96
-29 -22 -14 -54 -77 -85 -116 -88
-41 -29 -26 -50 -86 -82 -119 -97
-50 -37 -31 -52 -89 -80 -128 -97
-43 -29 -28 -58 -78 -82 -127 -98
-38 -13 -28 -54 -74 -86 -121 -97
-40 -13 -27 -52 -76 -76 -118 -87
-45 -20 -24 -51 -67 -82 -121 -91
-52 -29 -21 -60 -75 -88 -127 -95
-51 -28 -10 -61 -79 -85 -123 -91
-46 -17 -18 -58 -78 -82 -118 -92
-48 -19 -26 -66 -81 -75 -121 -94
-45 -30 -21 -63 -85 -85 -125 -92
-41 -23 -21 -61 -83 -94 -124 -93
-46 -15 -19 -61 -80 -91 -124 -93
-44 -17 -21 -56 -76 -84 -127 -94
-38 -12 -23 -55 -73 -83 -127 -94
-36 0 -24 -56 -69 -81 -124 -92
-32 -3 -29 -53 -74 -82 -126 -88
-34 -15 -30 -53 -70 -83 -126 -95
-40 -20 -31 -57 -69 -82 -126 -101
-36 -18 -26 -50 -79 -91 -123 -98
-37 -14 -24 -48 -76 -90 -120 -90
-45 -20 -27 -53 -65 -81 -122 -92
-43 -18 -26 -48 -62 -74 -117 -92
-41 -12 -20 -49 -69 -76 -114 -96
-42 -12 -14 -54 -72 -79 -123 -91
-43 -14 -18 -56 -70 -80 -126 -87
-46 -10 -19 -59 -73 -78 -117 -93
-45 -2 -14 -60 -75 -78 -120 -92
-45 3 -14 -60 -70 -76 -123 -83
-41 3 -11 -64 -61 -69 -120 -89
-39 -6 -6 -60 -66 -77 -120 -90
-39 -5 -3 -56 -69 -83 -121 -95
-35 3 -8 -56 -69 -82 -121 -91
-31 2 -11 -55 -61 -74 -119 -90
-32 1 -15 -57 -59 -73 -114 -89
-25 4 -15 -61 -62 -75 -113 -80
-20 1 -17 -55 -61 -70 -114 -86
-30 -2 -12 -57 -68 -72 -114 -96
-36 -6 -10 -57 -64 -68 -112 -91
-32 -3 -10 -43 -59 -65 -114 -93
-24 8 -6 -36 -50 -63 -107 -85
-28 11 -8 -40 -38 -64 -103 -94
-36 9 -5 -38 -43 -66 -107 -93
-33 8 2 -37 -53 -70 -106 -89
-23 14 4 -47 -53 -73 -110 -87
-31 10 10 -49 -56 -74 -107 -81
-36 7 11 -52 -55 -70 -100 -78
-35 20 18 -47 -48 -66 -94 -73
-18 30 17 -45 -42 -66 -95 -67
-13 25 9 -55 -36 -64 -98 -73
-15 26 2 -60 -51 -74 -92 -73
-19 33 -4 -56 -57 -84 -95 -60
-6 34 -10 -61 -43 -85 -97 -52
-3 45 -22 -56 -33 -76 -80 -55
-4 53 -18 -45 -21 -56 -70 -48
0 56 -9 -36 -13 -46 -60 -41
8 65 -13 -34 -13 -41 -56 -33
7 60 -18 -38 -16 -33 -58 -28
4 65 -18 -40 -20 -34 -56 -27
5 70 -20 -47 -27 -38 -54 -26
10 65 -20 -41 -25 -36 -67 -30
13 73 -27 -34 -14 -36 -67 -31
6 65 -24 -41 -32 -39 -66 -42
1 66 -18 -28 -33 -38 -65 -38
14 79 -9 -32 -29 -35 -65 -32
30 82 -22 -37 -38 -37 -59 -34
20 71 -27 -33 -42 -46 -61 -34
15 65 -34 -38 -38 -46 -70 -35
21 65 -38 -44 -48 -45 -71 -40
22 65 -40 -50 -49 -45 -72 -42
13 66 -35 -61 -53 -46 -70 -40
13 63 -37 -63 -52 -54 -66 -28
-3 40 -42 -66 -62 -65 -67 -34
-4 41 -34 -76 -83 -70 -73 -40
-14 39 -35 -80 -87 -70 -83 -58
-5 34 -29 -73 -78 -80 -93 -55
-1 35 -29 -80 -86 -89 -91 -59
-17 34 -41 -85 -86 -82 -100 -61
-25 18 -39 -80 -86 -80 -96 -61
-24 27 -32 -78 -92 -86 -97 -58
-38 26 -23 -74 -85 -84 -103 -59
-44 24 -21 -69 -81 -81 -100 -59
-37 23 -33 -75 -83 -75 -84 -65
-47 15 -36 -77 -82 -67 -85 -67
-37 22 -29 -97 -76 -67 -88 -55
-33 24 -27 -102 -80 -73 -74 -44
-35 15 -43 -98 -89 -77 -78 -49
-37 0 -46 -105 -98 -73 -89 -54
-41 -3 -53 -112 -109 -77 -88 -62
-42 -10 -46 -110 -102 -83 -102 -69
-45 -14 -30 -116 -110 -91 -112 -63
-46 -4 -29 -113 -117 -103 -101 -62
-55 -1 -28 -104 -128 -110 -99 -70
-51 -8 -36 -107 -137 -93 -114 -74
-46 -3 -36 -108 -134 -92 -117 -72
-40 0 -35 -109 -124 -103 -118 -72
-36 6 -39 -116 -131 -101 -119 -67
-39 8 -41 -110 -129 -110 -121 -72
-37 6 -47 -110 -130 -112 -108 -69
-27 -16 -24 -117 -126 -108 -106 -70
-34 -30 -34 -109 -126 -111 -107 -67
-30 -29 -29 -108 -136 -113 -124 -78
-36 -20 -26 -94 -132 -118 -124 -60
-49 -34 -8 -87 -119 -125 -137 -83
-47 -18 -12 -72 -118 -137 -139 -84
-94 -54 43 -15 -119 -157 -158 -78
-102 -50 63 74 -96 -147 -171 -128
-51 -26 68 21 -89 -127 -151 -136
-33 -32 57 43 -48 -124 -164 -130
-52 -31 66 33 -101 -94 -149 -159
-24 16 64 -8 -83 -96 -99 -111
-42 31 81 -59 -50 -93 -64 -74
-7 82 63 -124 -96 -34 -60 -73
21 116 54 -143 -117 40 -36 -75
42 127 36 -136 -68 40 18 -20
98 139 47 -93 13 145 112 47
228 219 16 130 229 267 163 93
377 306 27 263 492 466 322 229
505 392 34 390 684 686 513 370
567 422 -11 475 808 790 650 459
597 469 -32 497 819 778 679 526
616 514 -78 521 799 763 674 539
625 525 -37 533 797 725 656 571
639 536 -50 523 807 661 698 650
596 625 -20 529 755 597 689 682
487 624 -16 493 685 484 675 672
374 602 57 343 563 411 545 648
288 579 87 198 423 252 419 512
176 504 65 -6 277 132 299 387
83 405 -4 -151 114 5 156 363
14 345 -34 -333 -47 -150 63 279
-70 335 -132 -484 -165 -214 -35 202
-82 294 -152 -555 -204 -242 -51 154
-69 285 -186 -530 -200 -232 -41 158
-84 227 -194 -543 -204 -192 -55 118
-64 205 -211 -478 -201 -190 -70 69
-98 154 -197 -457 -190 -170 -53 55
-69 128 -199 -414 -166 -160 -95 6
-51 85 -175 -365 -155 -140 -111 -10
-32 74 -181 -333 -166 -135 -114 1
-60 47 -152 -303 -214 -125 -94 6
-42 60 -162 -277 -217 -115 -97 -8
-41 33 -136 -247 -210 -101 -66 -23
-12 26 -113 -190 -173 -95 -59 -13
-25 -7 -107 -160 -184 -86 -49 -26
-1 -19 -93 -134 -147 -83 -76 -40
3 -40 -91 -133 -161 -97 -74 -44
-1 -34 -97 -143 -141 -93 -78 -33
-15 -28 -95 -152 -143 -101 -72 -51
-1 -3 -71 -131 -135 -91 -56 -31
4 15 -74 -106 -120 -90 -37 -19
18 35 -36 -104 -126 -74 -40 -20
2 22 -42 -88 -120 -82 -25 -18
-18 32 -15 -76 -124 -66 -32 -16
-1 30 -20 -69 -111 -59 -44 -21
5 38 -22 -55 -110 -46 -30 -32
11 35 -28 -50 -97 -54 -38 -39
1 13 -31 -35 -93 -54 -39 -44
2 4 -31 -29 -84 -75 -34 -55
-2 6 -15 -27 -92 -75 -31 -59
-6 29 -15 -16 -89 -51 -33 -44
-12 4 -13 -21 -62 -45 -31 -35
-8 6 -12 -13 -51 -53 -36 -44
-9 -1 -8 -12 -73 -52 -35 -41
-22 -23 -17 -23 -75 -52 -34 -46
-20 -33 -16 -27 -73 -60 -47 -38
-25 -22 -16 -26 -72 -54 -50 -47
-37 -11 -34 -31 -78 -55 -55 -47
-46 -8 -28 -32 -89 -54 -51 -35
-28 -12 -35 -40 -85 -60 -45 -51
-27 -17 -29 -40 -78 -56 -56 -57
-36 -20 -37 -37 -70 -56 -51 -53
-43 -16 -36 -41 -61 -56 -45 -56
-34 -11 -24 -43 -67 -48 -60 -44
-27 0 -22 -42 -66 -34 -48 -39
-31 0 -13 -34 -56 -26 -29 -34
-37 -18 -16 -37 -63 -34 -30 -34
-25 -19 -8 -39 -77 -29 -33 -43
-17 -19 -10 -33 -82 -31 -26 -46
-25 -27 -31 -33 -77 -34 -33 -54
-28 -26 -23 -31 -62 -36 -39 -44
-22 -21 -26 -42 -51 -28 -36 -52
-30 -23 -29 -46 -54 -22 -42 -61
-35 -27 -32 -38 -61 -32 -46 -55
-42 -29 -36 -40 -61 -42 -46 -64
-35 -19 -34 -47 -65 -40 -45 -60
-30 -17 -27 -51 -66 -34 -41 -57
-32 -25 -28 -42 -71 -35 -38 -52
-41 -35 -29 -41 -69 -33 -35 -50
-40 -26 -12 -32 -66 -35 -30 -53
-32 -9 -10 -32 -65 -34 -24 -45
-37 -20 -14 -26 -53 -16 -26 -46
-41 -26 -21 -13 -53 -11 -15 -48
-32 -25 -24 -21 -61 -14 -19 -50
-32 -38 -23 -29 -66 -19 -33 -49
-36 -42 -38 -36 -66 -24 -30 -47
-32 -34 -49 -36 -64 -23 -21 -50
-27 -31 -48 -36 -66 -25 -26 -42
-25 -20 -48 -39 -66 -28 -25 -39
-26 -22 -56 -42 -52 -25 -25 -45
-22 -23 -46 -30 -48 -17 -17 -35
-13 -10 -36 -13 -46 -14 -1 -28
-21 -5 -33 -17 -42 -8 -2 -20
-17 -4 -18 -6 -39 4 5 -14
-11 2 -25 -1 -45 0 17 -8
-10 -6 -12 0 -39 -1 16 -9
-19 -12 -5 5 -41 -1 15 -13
-25 -7 -9 0 -48 0 8 -28
-20 -26 -8 2 -57 -3 0 -23
-15 -31 -22 -2 -60 -8 -9 -27
-11 -19 -20 4 -61 -23 -9 -31
-3 -16 -34 6 -45 -32 -14 -26
6 -14 -41 11 -45 -39 -10 -13
12 -5 -43 17 -39 -49 -2 -7
19 0 -48 19 -33 -44 8 0
21 5 -40 31 -15 -34 21 13
39 7 -45 30 -5 -24 31 34
52 16 -42 33 -1 -8 47 43
67 29 -39 47 3 7 58 57
70 17 -37 53 12 12 61 57
78 14 -39 58 12 15 70 65
76 13 -37 62 21 25 66 62
80 8 -38 67 14 34 70 77
80 15 -51 62 29 42 77 73
87 23 -46 66 38 46 89 80
93 21 -52 73 39 52 102 85
101 18 -56 71 43 61 114 98
119 24 -48 82 52 65 124 106
139 41 -49 84 60 75 134 117
136 42 -50 86 75 81 136 126
138 46 -63 83 77 87 148 130
150 67 -65 91 83 106 157 141
159 71 -59 97 90 125 164 158
160 87 -59 108 102 121 179 158
158 99 -67 111 109 129 194 166
159 104 -67 116 113 140 200 171
175 112 -71 114 120 148 211 183
180 116 -75 115 132 151 218 194
185 117 -84 113 137 167 223 196
178 123 -86 115 139 168 229 211
190 132 -88 112 148 173 243 214
205 142 -75 117 148 182 257 231
215 157 -78 128 150 202 270 247
212 160 -72 133 168 214 277 258
217 158 -82 138 178 228 282 255
213 169 -83 147 182 241 287 262
210 165 -89 158 193 254 294 260
212 167 -83 162 205 260 304 258
210 169 -76 169 222 281 302 249
200 175 -77 187 229 287 307 258
187 179 -75 184 236 294 315 252
181 187 -55 182 226 296 325 248
182 204 -53 193 240 304 313 242
178 203 -51 188 239 305 299 241
161 195 -42 189 236 297 283 221
140 192 -31 192 224 287 264 212
137 183 -20 193 220 286 246 195
133 172 8 195 209 275 249 187
122 174 1 201 197 262 238 175
113 152 -8 191 186 248 219 164
113 137 -11 189 179 229 213 152
109 132 -13 172 158 207 208 142
106 132 -3 169 162 215 182 130
105 123 -11 155 153 203 171 125
111 111 -5 154 151 184 156 117
98 102 0 147 136 179 148 110
83 102 8 151 138 175 145 92
81 91 25 150 135 164 136 87
86 87 18 148 132 154 127 84
82 85 9 133 116 143 117 73
78 75 15 130 108 130 113 74
71 63 12 119 92 126 110 74
74 54 5 104 92 123 96 63
73 39 6 101 88 108 99 58
63 36 12 113 98 101 98 51
55 37 26 114 94 99 84 42
52 43 33 108 90 101 81 42
44 37 26 91 79 99 66 39
30 31 23 84 72 90 42 22
33 37 17 81 57 84 38 17
38 33 10 75 49 76 28 19
34 20 10 61 39 55 17 12
29 12 2 54 22 48 27 1
17 0 8 65 31 39 28 5
11 -3 19 60 38 40 26 9
21 -3 21 45 16 36 26 7
23 -9 11 43 18 33 19 4
18 -8 11 39 16 36 16 7
16 -1 9 41 17 30 17 0
17 -4 22 43 20 31 2 0
22 2 12 38 14 40 2 2
9 0 3 37 18 33 -1 -2
1 -22 13 43 20 22 -5 -3
6 -8 15 39 6 24 1 -10
4 -4 8 41 0 31 0 -13
6 -26 5 39 -4 19 -9 -10
18 -19 3 26 3 10 -10 -8
14 -4 2 30 11 4 -5 -6
18 -1 4 34 11 8 -3 0
10 -14 19 27 12 18 -1 0
0 -33 6 25 2 18 -8 -17
-5 -31 4 22 -4 22 -18 -15
0 -21 19 24 10 15 -18 -4
9 -19 34 33 9 1 -12 -12
4 -21 19 33 -9 -1 -9 -17
-4 -33 18 22 -14 -9 -21 -15
4 -31 10 21 -19 -21 -31 -18
3 -30 -12 9 -21 -18 -39 -24
-8 -43 -7 7 -10 -7 -41 -26
-8 -24 -7 17 -10 -18 -26 -18
-2 -9 6 24 3 -8 -25 -12
-2 -13 23 36 15 1 -20 -11
-7 4 16 35 8 -1 -9 -9
-6 -3 34 30 11 5 -10 0
0 -15 29 23 7 -2 -25 -7
-10 -8 20 16 0 -12 -29 -10
-22 -22 7 17 -5 -14 -24 -14
-19 -27 16 24 -5 -17 -25 -14
-6 -14 36 26 7 -6 -21 -6
-7 -15 32 28 13 -1 -16 -5
-14 -20 25 36 3 -4 -16 -5
-23 -29 23 31 -4 -5 -23 -7
-22 -28 18 23 -3 -14 -31 -12
-19 -16 9 16 -6 -22 -31 -10
-26 -11 12 18 0 -14 -33 -9
-23 -8 14 29 14 -19 -33 -9
-23 -11 23 23 9 -13 -29 -5
-25 -13 40 24 8 -7 -18 0
-18 -9 33 28 6 -11 -14 2
-14 -19 35 25 1 -4 -20 5
-12 -22 35 25 -4 -12 -23 1
-13 -18 28 20 -2 -16 -27 3
-18 -21 31 19 -2 -12 -26 0
-17 -16 31 30 1 -11 -23 -3
-14 -13 35 29 4 -8 -24 1
-14 -11 33 23 6 -6 -17 -2
-11 -15 28 30 3 -10 -16 0
-13 -22 24 33 5 -9 -19 0
-18 -24 28 26 13 -2 -21 -6
-18 -21 30 31 9 -9 -20 0
-17 -17 33 24 10 -9 -18 2
-20 -14 36 29 13 -6 -15 8
-22 -10 35 29 9 -6 -7 13
-24 -11 42 20 4 -2 -7 10
-27 -13 40 21 0 -1 -10 8
-27 -14 35 22 4 -4 -13 6
-29 -14 38 23 8 1 -14 7
-29 -7 35 23 10 2 -16 6
-30 -4 36 23 11 2 -18 5
-26 -6 39 23 11 2 -15 8
-24 -9 37 23 10 0 -17 4
-19 -5 39 24 13 0 -14 5
-17 -5 38 26 12 2 -15 4
-17 -1 37 33 12 2 -18 3
-17 -1 34 27 11 -2 -17 4
-16 0 26 21 10 -1 -19 2
-14 -2 28 23 8 -2 -22 3
-15 -4 20 17 9 -6 -20 -4
-14 -3 23 15 10 -4 -20 -3
-16 -7 24 18 5 -5 -19 1
-18 -6 22 12 5 -6 -14 4
-20 -10 25 10 6 -4 -13 9
-24 -14 22 14 4 -3 -13 4
-24 -18 24 5 4 -7 -16 2
-28 -25 29 0 0 -8 -21 0
-29 -25 32 2 -6 -12 -24 -2
-26 -27 29 -1 -6 -13 -21 -3
-25 -24 30 -2 0 -9 -22 -3
-24 -16 33 2 3 -10 -21 -1
-22 -10 25 -3 2 -8 -24 -4
-20 -15 23 0 -1 -10 -32 -4
-19 -12 16 0 -8 -12 -30 -10
-19 -12 18 -8 -9 -16 -36 -14
-15 -10 23 0 -6 -19 -32 -8
-12 -12 16 -1 -10 -23 -30 -6
-15 -16 13 -8 -11 -22 -28 -8
-19 -16 19 -1 -11 -19 -27 -13
-16 -24 22 0 -11 -20 -29 -15
-20 -31 22 -6 -10 -20 -30 -15
-24 -31 23 -3 -10 -19 -31 -6
-18 -23 18 -5 -8 -20 -26 -7
-20 -23 16 -7 -8 -11 -26 -8
-25 -24 17 -2 -10 -10 -25 -7
-27 -35 19 -9 -16 -18 -29 -13
-39 -51 16 -14 -20 -20 -39 -19
-41 -43 20 -9 -21 -28 -41 -20
-40 -36 20 -12 -20 -26 -38 -19
-46 -35 10 -15 -21 -20 -39 -20
-47 -32 18 -6 -18 -23 -42 -26
-35 -26 21 -9 -23 -26 -39 -25
-37 -29 15 -11 -27 -18 -41 -19
-37 -26 15 -6 -20 -15 -43 -13
-30 -16 16 -7 -14 -17 -36 -19
-25 -12 20 3 -11 -10 -33 -11
-20 -12 15 2 -17 -15 -32 -8
-22 -24 9 -10 -18 -14 -34 -20
-25 -41 8 -7 -20 -20 -43 -22
-23 -40 12 -3 -22 -27 -40 -29
-26 -34 16 -5 -25 -24 -39 -27
-31 -47 13 -8 -25 -26 -49 -24
-34 -47 11 -3 -24 -25 -45 -26
-33 -46 9 -3 -24 -21 -38 -23
-42 -58 15 -4 -24 -21 -40 -26
-44 -52 11 -12 -38 -19 -40 -24
-39 -48 12 -11 -34 -9 -31 -24
-34 -40 15 1 -28 -10 -29 -16
-32 -30 19 -4 -21 -12 -27 -7
-29 -35 23 -5 -10 -7 -30 -10
-25 -41 14 -4 -17 -13 -32 -23
-30 -43 14 -3 -24 -16 -36 -31
-35 -53 14 -3 -32 -20 -43 -26
-34 -50 9 -11 -25 -17 -43 -22
-29 -45 7 -10 -19 -15 -37 -18
-25 -47 6 0 -24 -22 -29 -18
-29 -48 8 0 -24 -25 -32 -21
-31 -53 11 -7 -26 -24 -39 -19
-27 -56 1 -7 -36 -23 -39 -28
-29 -56 -7 -12 -42 -22 -46 -27
-33 -57 -1 -13 -34 -17 -47 -24
-25 -50 -4 -4 -24 -19 -42 -22
-22 -45 1 -1 -16 -16 -39 -19
-30 -48 5 8 -12 -16 -33 -22
-32 -42 4 7 -18 -19 -31 -18
-35 -39 15 -3 -19 -5 -29 -20
-35 -39 16 -4 -21 3 -28 -20
-35 -45 8 -8 -20 1 -29 -10
-38 -58 2 -9 -14 1 -25 -17
-32 -52 11 -2 -24 -3 -26 -17
-30 -49 18 -2 -20 -5 -24 -17
-38 -57 13 -2 -15 2 -32 -18
-31 -59 4 -1 -23 -7 -33 -22
-32 -47 -2 -9 -19 -6 -30 -32
-28 -31 1 0 -11 1 -35 -22
-16 -31 3 18 -8 -3 -34 -18
-24 -44 -5 16 -10 -6 -33 -26
-27 -51 -5 10 -19 -13 -43 -27
-28 -51 0 8 -19 -11 -51 -34
-36 -53 -1 2 -17 -8 -46 -35
-34 -50 -8 2 -18 -4 -42 -29
-35 -48 -6 0 -27 -2 -39 -36
-31 -45 15 7 -24 -3 -34 -26
-26 -49 24 12 -15 -7 -35 -25
-35 -41 15 11 -18 -5 -36 -30
-38 -40 14 4 -18 3 -35 -28
-28 -44 11 -7 -18 -1 -40 -25
-20 -35 17 -10 -19 -5 -37 -18
-21 -36 3 -2 -20 -6 -26 -23
-27 -46 9 0 -20 -8 -29 -34
-23 -49 28 2 -10 -3 -30 -23
-22 -44 28 7 -10 1 -36 -26
-27 -39 19 10 -17 5 -38 -25
-38 -41 6 4 -11 -4 -38 -37
-34 -33 4 -6 -12 -22 -42 -35
-28 -25 6 -7 -23 -30 -38 -29
-36 -28 12 -6 -19 -17 -35 -27
-44 -39 21 -11 -19 -25 -40 -28
-41 -47 27 -12 -18 -19 -46 -23
-45 -42 44 -15 -15 -14 -39 -24
-36 -29 31 -18 -21 -20 -31 -17
-31 -39 23 -27 -17 -18 -40 -11
-16 -32 20 -31 -28 -34 -35 -14
-16 -10 14 -36 -34 -50 -26 -7
-17 -11 17 -28 -15 -35 -25 6
-6 8 9 -10 2 -9 -6 7
13 23 13 -4 25 12 -1 23
11 29 18 6 37 26 9 22
11 37 6 6 34 21 16 23
12 28 1 5 45 28 15 26
21 34 3 1 43 27 14 27
21 37 -2 -17 22 18 17 25
6 20 -3 -20 12 18 6 22
9 22 -7 -4 19 14 5 30
11 31 -2 -12 14 6 5 29
9 26 3 -15 11 4 5 24
4 27 -2 -11 0 0 3 18
11 26 -9 -17 -3 -4 -5 19
7 14 -4 -15 -10 -7 -13 14
2 16 -16 -17 -16 -6 -19 13
-11 13 -15 -15 -20 3 -15 4
0 16 -14 -4 -20 -1 -11 14
5 19 -6 -7 -11 -3 -12 18
-1 21 -5 -15 -5 -5 -8 15
-8 4 -11 -12 -18 -7 -5 8
-11 2 2 -8 -24 -8 -10 10
-9 1 13 -20 -18 -13 -21 0
-9 -1 9 -15 -17 -13 -23 -1
-11 -3 6 -10 -20 -21 -16 -2
-16 -11 15 -9 -23 -19 -22 -2
-17 -23 17 -9 -23 -23 -28 0
-23 -25 15 -16 -25 -26 -37 -10
-32 -31 18 -18 -31 -29 -47 -13
-40 -41 14 -23 -33 -34 -48 -15
-46 -42 9 -37 -38 -33 -46 -26
-50 -46 -1 -44 -45 -31 -49 -23
-51 -46 -3 -52 -47 -31 -49 -22
-43 -44 -4 -57 -55 -41 -43 -18
-40 -49 -10 -63 -54 -42 -47 -23
-44 -56 -17 -66 -57 -40 -54 -27
-42 -59 -27 -75 -68 -45 -56 -32
-39 -64 -16 -70 -63 -45 -63 -31
-46 -66 -7 -69 -70 -52 -61 -33
-52 -61 0 -67 -75 -59 -57 -34
-58 -62 -1 -57 -72 -65 -53 -31
-59 -63 0 -60 -80 -57 -58 -40
-55 -54 5 -62 -73 -58 -62 -35
-54 -51 13 -58 -62 -64 -68 -35
-49 -42 12 -63 -68 -64 -76 -31
-57 -47 13 -68 -73 -64 -78 -36
-62 -51 -1 -71 -73 -67 -73 -41
-51 -61 12 -64 -74 -69 -79 -47
-59 -68 8 -56 -75 -71 -81 -36
-54 -74 13 -62 -77 -84 -98 -57
-57 -56 22 -46 -82 -93 -104 -46
-77 -105 34 -18 -81 -94 -130 -67
-69 -92 54 18 -67 -103 -138 -79
-113 -103 118 63 -62 -115 -139 -78
-114 -114 120 164 -19 -100 -157 -114
-57 -89 132 143 3 -60 -117 -119
-28 -68 110 138 49 -64 -108 -102
-14 -45 93 99 15 -39 -87 -93
23 -9 48 33 -5 2 -21 -67
44 34 45 -55 -9 48 39 -11
94 103 10 -124 -42 114 90 23
131 144 -11 -131 -57 223 130 68
179 197 -65 -96 17 254 214 136
249 249 -76 -37 117 386 352 220
362 369 -59 211 366 570 452 325
487 452 -51 362 643 759 617 430
539 486 -36 485 799 950 736 544
551 496 -68 570 887 1016 837 620
545 547 -49 550 885 974 836 642
544 566 -48 554 848 921 805 653
528 547 -16 525 814 845 759 655
470 478 -14 460 760 691 733 666
409 484 49 366 586 525 633 634
292 463 55 249 408 312 533 559
138 416 98 46 227 164 387 486
54 400 84 -93 79 22 227 377
9 338 75 -238 15 -80 136 288
-50 271 19 -309 -79 -123 55 272
-102 200 -12 -408 -203 -200 8 215
-141 177 -74 -481 -258 -245 -67 144
-141 133 -95 -549 -281 -249 -89 102
-119 125 -158 -540 -290 -250 -92 94
-132 83 -172 -511 -277 -212 -78 65
-92 57 -194 -440 -247 -203 -99 38
-92 -1 -174 -392 -240 -166 -94 34
-64 -12 -174 -348 -199 -153 -95 -2
-63 -42 -145 -294 -180 -122 -92 -5
-44 -53 -135 -250 -160 -93 -90 0
-51 -72 -118 -219 -187 -86 -59 2
-28 -42 -110 -203 -170 -68 -55 9
-38 -50 -92 -170 -157 -51 -20 4
-15 -42 -78 -130 -119 -36 -13 14
-5 -67 -71 -130 -124 -34 -10 10
2 -54 -60 -116 -103 -34 -16 0
4 -61 -64 -110 -106 -58 -16 -6
2 -60 -51 -91 -78 -47 -24 -4
-5 -52 -48 -91 -72 -60 -13 -13
-11 -38 -22 -82 -84 -52 -5 -6
-19 -34 -24 -63 -79 -46 -3 1
-18 -32 11 -59 -87 -41 1 0
-27 -34 7 -47 -81 -51 -1 -8
-39 -39 26 -37 -88 -47 -9 -6
-31 -49 18 -29 -73 -35 -14 -13
-39 -44 13 -24 -73 -25 -17 -20
-41 -44 17 -15 -67 -23 -26 -25
-49 -50 12 -10 -57 -29 -25 -29
-48 -46 15 -10 -55 -42 -27 -33
-42 -45 11 -8 -55 -44 -20 -33
-36 -29 10 -6 -45 -39 -25 -27
-36 -44 13 -11 -36 -38 -24 -25
-37 -45 7 -9 -33 -40 -21 -29
-42 -56 9 -13 -34 -33 -26 -17
-47 -65 7 -20 -35 -27 -27 -17
-46 -68 6 -29 -37 -27 -23 -15
-49 -71 5 -28 -38 -26 -23 -20
-50 -75 -1 -27 -47 -29 -23 -25
-59 -76 8 -19 -51 -32 -15 -23
-48 -72 3 -24 -48 -36 -23 -29
-47 -71 7 -27 -42 -27 -31 -27
-51 -69 -2 -24 -34 -22 -26 -24
-50 -69 -3 -25 -23 -24 -26 -32
-45 -65 -2 -20 -27 -15 -29 -28
-42 -69 -7 -21 -29 -18 -24 -29
-46 -71 -5 -20 -25 -19 -23 -32
-53 -73 5 -22 -26 -21 -28 -33
-51 -75 10 -18 -32 -22 -29 -35
-54 -77 1 -19 -40 -25 -27 -38
-57 -82 -4 -24 -40 -24 -28 -43
-57 -84 0 -23 -33 -26 -32 -40
-59 -79 -2 -23 -26 -23 -30 -41
-64 -76 -2 -25 -21 -16 -29 -46
-65 -80 -5 -20 -29 -15 -34 -40
-64 -80 -9 -23 -31 -14 -30 -39
-59 -74 -8 -23 -31 -5 -24 -37
-54 -73 -10 -23 -32 -7 -27 -39
-56 -87 -11 -26 -38 -8 -31 -42
-64 -97 -21 -30 -52 -16 -32 -49
-67 -94 -22 -28 -54 -27 -34 -58
-65 -80 -13 -22 -41 -22 -30 -45
-63 -75 -15 -15 -21 -14 -25 -47
-67 -72 -13 -13 -19 -7 -23 -45
-61 -62 -12 -14 -31 -3 -21 -41
-56 -61 -16 -18 -39 -12 -27 -39
-54 -70 -19 -23 -38 -12 -28 -33
-57 -63 -28 -30 -39 -17 -21 -42
-56 -58 -23 -32 -48 -23 -28 -43
-52 -59 -23 -29 -51 -23 -29 -27
-51 -58 -24 -31 -34 -22 -28 -36
-56 -55 -21 -22 -38 -26 -23 -38
-56 -58 -24 -17 -35 -23 -22 -43
-50 -56 -20 -12 -29 -25 -29 -32
-38 -49 -16 -8 -29 -31 -21 -28
-41 -46 -18 -3 -28 -32 -15 -26
-47 -46 -10 8 -20 -24 -14 -23
-39 -44 0 7 -17 -15 -9 -19
-39 -39 2 0 -26 -6 -6 -24
-36 -44 0 3 -34 -7 -11 -15
-27 -46 -14 -1 -27 -13 -16 -25
-10 -45 -10 8 -25 -29 -12 -19
-5 -44 -18 11 -18 -38 -17 -22
0 -40 -25 11 -26 -42 -13 -10
5 -42 -30 17 -7 -42 -6 0
24 -36 -37 12 5 -44 1 13
25 -21 -42 16 13 -29 23 18
31 -17 -48 20 22 -9 40 39
46 -12 -42 27 28 5 52 48
62 2 -38 32 34 22 61 57
59 -7 -39 33 43 24 56 55
60 -5 -45 35 36 26 61 64
63 -3 -45 35 42 33 58 59
68 -14 -39 36 38 33 56 68
66 -3 -47 35 41 28 60 60
67 7 -48 41 41 35 75 73
72 5 -44 45 49 46 85 78
93 15 -42 37 56 57 99 98
106 23 -44 37 64 62 116 103
123 34 -51 38 68 77 125 115
124 36 -54 37 75 84 128 126
128 43 -66 27 78 89 140 128
141 63 -65 33 86 104 150 144
152 62 -62 34 96 120 160 162
151 84 -58 37 110 121 181 154
151 98 -60 42 115 127 189 163
151 100 -52 51 122 135 197 171
156 102 -65 53 129 134 214 175
161 109 -67 59 136 143 209 186
172 113 -66 65 158 165 210 187
167 126 -70 69 161 164 221 196
175 135 -77 60 160 168 228 204
173 140 -74 71 156 175 238 220
180 153 -80 74 157 188 246 224
178 155 -71 76 170 186 253 225
175 147 -76 88 177 195 245 221
168 151 -81 84 178 196 239 213
166 145 -75 98 180 207 242 213
165 147 -71 102 184 209 248 224
171 155 -73 94 192 215 249 221
173 154 -74 100 203 218 259 241
189 162 -86 103 217 216 268 237
194 176 -81 99 211 222 274 243
190 176 -85 106 211 223 271 233
182 166 -78 109 213 230 257 236
177 166 -72 115 214 233 241 218
173 163 -74 124 215 224 236 202
166 159 -73 138 224 224 226 204
153 155 -68 131 224 220 231 190
138 149 -53 140 221 218 217 169
121 133 -43 138 206 213 206 171
99 124 -37 135 205 218 194 151
90 115 -18 132 188 208 191 149
83 117 -4 134 198 202 182 139
79 110 12 134 184 198 173 136
77 97 8 133 168 183 164 116
60 73 8 115 151 168 134 99
57 67 16 103 144 142 101 81
51 64 11 94 135 126 96 69
45 58 8 93 130 120 87 59
30 54 2 87 114 103 77 45
12 48 8 89 110 102 67 41
15 36 20 87 92 92 64 39
10 32 26 78 92 86 55 28
5 15 22 62 78 74 53 26
11 6 22 59 79 65 48 21
6 12 32 61 67 61 42 25
4 20 32 55 63 49 37 25
6 6 36 52 64 47 21 23
3 6 36 55 54 36 19 9
1 4 35 47 47 30 9 0
-5 -16 24 43 35 25 -9 0
-14 -22 9 25 25 17 -13 -12
-6 -17 9 21 31 12 -14 -14
1 -15 -1 33 32 -1 -16 -17
-12 -13 5 38 39 2 -16 -16
-19 -20 11 29 39 1 -16 -9
-10 -21 7 20 30 -1 -18 -11
-11 -17 21 20 13 1 -15 -9
-16 -16 19 25 14 3 -13 -7
-13 -20 24 27 18 3 -15 -6
-11 -24 18 24 12 -8 -14 -9
-12 -32 17 20 10 -11 -30 -17
-14 -31 24 27 12 -6 -33 -19
-21 -25 18 17 16 -6 -33 -32
-17 -26 14 12 9 -16 -48 -26
-14 -25 6 8 5 -18 -47 -26
-19 -22 5 7 5 -21 -43 -35
-17 -23 14 16 9 -31 -44 -29
-21 -20 18 18 16 -27 -46 -30
-17 -15 27 17 9 -26 -44 -29
-15 -20 22 15 5 -28 -42 -24
-24 -22 18 15 9 -16 -42 -25
-19 -19 16 14 12 -21 -40 -24
-17 -18 22 11 10 -25 -34 -28
-20 -14 25 15 11 -26 -36 -30
-24 -18 20 17 7 -29 -44 -33
-27 -17 24 18 8 -21 -40 -31
-29 -13 24 16 11 -20 -42 -32
-35 -19 22 9 12 -23 -56 -32
-32 -17 21 8 9 -28 -49 -28
-22 -10 17 9 8 -37 -45 -30
-27 -15 16 5 8 -40 -52 -34
-31 -13 21 5 0 -39 -46 -32
-33 -14 31 14 4 -38 -42 -22
-35 -16 30 13 4 -34 -44 -19
-28 -12 27 9 -2 -32 -42 -24
-30 -15 26 14 3 -32 -42 -26
-27 -17 23 15 9 -33 -43 -24
-25 -13 23 13 7 -35 -45 -27
-29 -10 25 17 11 -34 -49 -29
-26 -5 33 19 10 -28 -48 -22
-26 -3 34 20 14 -26 -44 -22
-32 -12 33 24 12 -38 -49 -26
-29 -15 31 23 3 -36 -49 -28
-29 -14 28 22 -2 -35 -44 -33
-26 -15 29 29 -1 -41 -44 -26
-20 -12 32 25 5 -38 -42 -18
-22 -7 26 21 12 -35 -33 -19
-19 -8 29 25 15 -33 -33 -17
-20 -11 33 32 17 -27 -34 -11
-29 -9 30 30 16 -25 -33 -16
-29 -6 29 34 20 -22 -39 -15
-25 -6 31 31 23 -26 -37 -10
-26 -2 30 24 20 -30 -29 -15
-31 0 26 27 14 -27 -27 -12
-28 -5 27 25 17 -25 -28 -9
-29 -7 25 22 10 -26 -32 -11
-29 -5 20 22 9 -29 -34 -8
-31 -4 21 24 14 -26 -31 -10
-27 0 18 26 17 -24 -29 -11
-25 0 24 27 16 -24 -33 -11
-20 4 27 31 22 -25 -29 -8
-21 9 26 29 16 -27 -27 -7
-21 11 29 33 20 -21 -28 -6
-17 15 30 32 21 -23 -27 -4
-19 18 24 26 20 -22 -24 -6
-23 10 22 29 14 -25 -23 -3
-21 3 20 27 17 -29 -26 -7
-20 1 28 22 18 -27 -25 -9
-24 -4 31 23 12 -30 -23 -4
-24 -8 32 20 12 -35 -20 -3
-24 -10 34 20 12 -32 -19 -1
-28 -6 33 24 10 -25 -17 0
-32 -6 29 20 14 -23 -21 0
-40 -11 31 13 11 -24 -23 -2
-37 -7 31 11 11 -29 -23 -2
-34 -9 35 6 10 -29 -24 -2
-36 -7 35 4 10 -26 -21 -5
-35 -3 37 8 7 -29 -18 -5
-30 -4 37 12 5 -30 -23 -5
-27 -5 37 10 4 -33 -24 -3
-24 -3 34 8 6 -30 -24 -5
-21 -6 35 10 3 -31 -31 -8
-17 -3 33 11 4 -35 -31 -11
-11 -1 31 6 0 -41 -34 -9
-14 -5 27 5 0 -37 -32 -10
-19 -9 29 7 -2 -34 -27 -10
-17 -11 31 7 0 -38 -26 -13
-17 -11 34 5 4 -39 -28 -13
-18 -14 28 0 2 -39 -33 -14
-16 -10 28 -3 -1 -42 -30 -15
-17 -11 28 -5 -7 -36 -28 -8
-17 -16 25 -11 -10 -35 -28 -6
-19 -20 22 -19 -13 -38 -28 -13
-28 -23 29 -13 -5 -36 -28 -17
-26 -16 41 -4 -1 -41 -26 -17
-27 -12 39 -7 -5 -35 -22 -11
-24 -8 34 -9 -2 -25 -31 -13
-22 -7 37 -6 1 -29 -35 -21
-20 -3 29 -11 -9 -29 -31 -22
-17 -9 25 -14 -13 -37 -41 -20
-11 -12 26 -20 -10 -43 -40 -21
-10 -11 17 -17 -11 -40 -34 -30
-19 -8 16 0 -6 -40 -38 -31
-21 -3 20 -9 -1 -42 -36 -22
-10 0 17 -25 -6 -40 -33 -22
-11 -11 17 -13 -12 -40 -41 -32
-16 -20 14 -12 -17 -44 -41 -34
-17 -17 16 -13 -14 -48 -43 -34
-14 -24 31 -5 -13 -51 -48 -29
-6 -19 23 -14 -7 -47 -35 -23
-24 -16 15 -6 3 -38 -31 -22
-35 -21 19 3 0 -37 -32 -25
-28 -21 20 -17 -17 -34 -35 -30
-30 -29 19 -25 -28 -27 -42 -37
-31 -42 7 -24 -33 -40 -45 -36
-21 -41 10 -28 -21 -43 -44 -34
-21 -26 22 -21 -15 -47 -41 -31
-23 -17 21 -22 -20 -52 -37 -26
-32 -29 19 -27 -10 -44 -45 -27
-33 -36 14 -15 -9 -47 -46 -37
-20 -15 18 -19 -17 -40 -39 -45
-12 -7 29 -21 -12 -36 -46 -28
-1 -15 38 0 -13 -38 -40 -15
8 -14 17 0 -26 -44 -32 -23
0 -26 4 -8 -26 -43 -40 -28
-7 -28 6 -10 -21 -47 -53 -34
-6 -27 -7 -25 -19 -53 -55 -46
-12 -42 -7 -26 -19 -44 -62 -52
-20 -28 -8 -18 -25 -48 -58 -53
-23 -16 8 -12 -19 -43 -46 -42
-17 -25 23 -4 -15 -37 -42 -40
-15 -11 18 -1 -14 -43 -40 -37
-14 -19 22 -9 -19 -44 -40 -25
-14 -38 14 -16 -26 -51 -43 -34
-22 -27 18 -15 -29 -52 -50 -30
-18 -27 10 -19 -25 -48 -44 -28
-13 -31 14 -18 -26 -42 -39 -33
-11 -28 29 -11 -16 -38 -39 -29
-10 -25 22 -11 -10 -40 -44 -37
-14 -26 4 -2 -26 -40 -52 -38
-18 -30 -7 -5 -29 -42 -60 -46
-12 -26 -7 -15 -22 -49 -64 -53
-8 -15 -20 -19 -20 -56 -60 -45
-8 -20 -12 -18 -12 -48 -60 -35
-10 -18 0 -9 -14 -49 -47 -30
-18 -19 3 -10 -15 -40 -38 -34
-15 -29 32 1 -15 -30 -36 -26
0 -11 17 5 -21 -33 -21 -23
-2 -22 7 -11 -25 -22 -34 -28
-3 -44 9 -10 -31 -33 -46 -28
-6 -38 -3 -20 -29 -50 -49 -32
-11 -36 -2 -24 -23 -43 -57 -39
-14 -32 -3 -8 -18 -42 -55 -44
-18 -22 3 -1 -6 -35 -46 -38
-13 -15 18 3 0 -31 -45 -40
-9 -13 13 4 -9 -30 -42 -36
-15 -22 5 -13 -15 -31 -45 -35
-18 -31 0 -18 -12 -29 -49 -41
-10 -21 0 -14 -32 -34 -47 -34
-1 -13 9 -20 -30 -36 -50 -28
-6 -23 11 -16 -10 -37 -50 -27
-5 -18 3 -11 -11 -37 -35 -28
-6 -13 22 -9 -9 -30 -29 -36
-9 -17 23 -5 -16 -29 -39 -27
-4 -26 17 -18 -22 -33 -47 -26
-4 -33 8 -17 -21 -33 -47 -43
-12 -32 -1 -12 -25 -39 -49 -45
-12 -28 5 -14 -11 -33 -52 -39
-10 -24 20 -10 -3 -27 -44 -38
-3 -20 25 -3 -4 -21 -36 -32
-14 -18 30 1 -5 -28 -38 -36
-22 -12 34 4 -5 -31 -39 -31
-13 -10 41 4 -7 -25 -35 -32
-11 -11 34 -3 -8 -26 -38 -38
-11 -17 31 -8 -11 -36 -46 -28
2 -20 28 -12 -12 -39 -49 -27
-14 -14 34 -19 -13 -38 -43 -34
-12 -10 39 -16 -11 -31 -37 -24
-4 -24 42 -4 -4 -28 -37 -19
-2 -19 33 -1 0 -22 -28 -19
-4 -8 25 -5 7 -22 -23 -19
-2 -6 26 0 19 -20 -20 -11
2 0 29 3 14 -15 -16 -4
16 8 29 -1 16 -10 -18 -3
6 5 31 -6 14 -8 -9 0
5 9 24 -4 16 -2 -6 4
9 16 28 8 28 9 -4 4
15 18 29 15 39 15 -2 2
17 22 26 2 33 12 -4 1
22 20 27 5 19 0 -14 -7
22 24 24 19 14 -8 -15 -1
31 24 22 10 13 -12 -21 0
29 33 17 20 12 -9 -5 -1
38 47 22 22 24 0 -1 6
49 56 28 36 31 5 7 11
44 52 24 40 29 9 11 13
36 36 16 32 32 17 0 12
34 37 14 20 21 12 -7 11
36 40 8 2 0 1 -3 10
19 31 6 -4 -5 -6 -12 8
16 27 -1 -5 6 -19 -18 15
-1 19 -14 -18 -11 -23 -14 -1
-8 18 -9 -27 -19 -28 -28 0
-15 20 -1 -39 -18 -27 -35 -6
-1 29 -6 -41 -25 -36 -33 -4
-9 22 -12 -34 -35 -40 -34 -8
-15 14 -12 -38 -42 -31 -45 -6
-21 6 -21 -32 -47 -30 -39 -12
-19 7 -12 -23 -43 -37 -48 -16
-16 11 0 -20 -34 -34 -50 -8
-26 15 2 -25 -25 -33 -35 -12
-33 0 2 -24 -33 -30 -33 -20
-37 -7 5 -21 -47 -18 -36 -16
-33 -7 4 -33 -39 -20 -40 -19
-31 -9 5 -32 -33 -25 -32 -13
-23 -8 -2 -37 -28 -34 -29 -16
-31 -9 -6 -39 -27 -34 -36 -22
-28 -17 -4 -46 -43 -40 -39 -21
-33 -32 1 -49 -45 -42 -49 -25
-52 -34 10 -53 -54 -47 -53 -28
-45 -32 12 -47 -69 -51 -50 -20
-45 -34 9 -40 -65 -57 -45 -18
-54 -44 5 -49 -66 -55 -50 -28
-52 -40 4 -54 -76 -53 -55 -29
-49 -39 13 -52 -69 -64 -59 -23
-54 -41 13 -63 -77 -60 -68 -23
-56 -40 0 -67 -80 -61 -73 -28
-63 -43 -10 -65 -79 -60 -61 -37
-49 -48 8 -59 -76 -60 -62 -37
-47 -52 5 -55 -72 -58 -60 -19
-46 -48 10 -54 -70 -64 -73 -39
-44 -28 11 -48 -79 -75 -72 -22
-56 -63 26 -28 -64 -69 -89 -34
-52 -51 42 0 -52 -80 -93 -47
-101 -77 102 59 -67 -104 -110 -46
-108 -88 101 158 -40 -89 -121 -82
-56 -62 117 107 -26 -62 -86 -98
-27 -56 108 106 20 -64 -91 -76
-21 -58 88 84 -1 -32 -68 -80
15 -2 45 17 -19 -9 -5 -45
10 38 34 -88 -33 13 42 12
33 89 18 -160 -79 82 76 30
77 118 3 -173 -102 170 97 59
113 149 -38 -161 -39 175 163 113
174 192 -31 -109 53 296 291 183
303 300 -24 139 298 462 365 266
445 381 4 315 594 670 526 387
540 431 6 443 788 873 689 510
576 454 -36 524 906 978 813 583
583 494 -26 529 911 962 814 613
606 538 -38 553 870 931 807 636
601 537 -10 541 860 874 783 656
557 482 -11 497 839 768 761 679
519 512 30 452 716 626 696 662
403 499 35 370 556 434 638 615
256 466 94 184 358 297 475 557
157 441 81 12 177 113 291 425
62 368 59 -154 66 -11 179 301
-10 293 -1 -229 -64 -94 81 287
-53 242 -23 -345 -169 -183 24 240
-97 227 -83 -432 -199 -221 -37 174
-107 191 -108 -496 -238 -218 -52 132
-109 179 -156 -497 -255 -219 -59 123
-123 138 -157 -486 -244 -181 -59 96
-82 108 -173 -427 -216 -167 -80 57
-101 48 -156 -393 -212 -143 -73 37
-76 30 -155 -356 -191 -146 -91 7
-60 -4 -126 -303 -175 -126 -92 11
-44 -6 -122 -269 -164 -100 -94 6
-55 -29 -97 -242 -203 -91 -67 12
-28 -8 -101 -221 -189 -76 -60 9
-29 -31 -85 -191 -174 -69 -33 -2
-2 -27 -80 -153 -141 -60 -27 1
-7 -57 -75 -138 -142 -54 -15 -3
6 -50 -60 -111 -116 -56 -30 -9
18 -57 -61 -109 -112 -66 -27 -12
12 -53 -58 -101 -83 -56 -30 -13
-4 -53 -58 -106 -87 -68 -25 -25
-6 -39 -36 -100 -104 -59 -16 -9
-6 -30 -44 -85 -97 -60 -8 -5
-2 -25 -12 -83 -110 -58 -10 -6
-17 -25 -15 -68 -103 -59 -1 -11
-34 -27 16 -48 -96 -54 -7 -6
-22 -41 5 -48 -85 -46 -16 -4
-27 -32 0 -48 -87 -32 -12 -18
-31 -31 6 -38 -78 -35 -23 -29
-36 -40 5 -25 -72 -36 -22 -26
-34 -34 4 -24 -70 -51 -19 -33
-34 -38 13 -20 -71 -53 -18 -34
-24 -17 12 -19 -64 -40 -18 -18
-29 -28 19 -22 -48 -37 -12 -16
-38 -35 16 -19 -45 -43 -17 -25
-38 -48 12 -28 -55 -38 -23 -16
-46 -63 2 -31 -62 -33 -23 -27
-46 -69 1 -33 -65 -41 -27 -21
-44 -62 9 -34 -57 -36 -24 -14
-48 -55 0 -33 -60 -43 -17 -20
-54 -56 12 -27 -64 -43 -13 -14
-46 -56 10 -30 -58 -40 -15 -17
-53 -53 7 -30 -52 -25 -20 -22
-53 -53 0 -28 -42 -17 -23 -18
-47 -50 5 -30 -26 -18 -18 -23
-42 -43 11 -22 -32 -19 -18 -17
-40 -49 6 -24 -42 -17 -13 -9
-44 -59 6 -30 -38 -15 -12 -16
-49 -67 5 -38 -45 -27 -23 -23
-47 -72 0 -42 -54 -29 -27 -28
-52 -70 -5 -42 -59 -30 -20 -31
-53 -68 -17 -53 -58 -36 -22 -40
-51 -67 -2 -47 -47 -32 -26 -29
-49 -61 -2 -41 -37 -28 -18 -26
-61 -58 0 -46 -33 -23 -19 -33
-60 -58 6 -43 -40 -15 -23 -24
-53 -57 -1 -45 -43 -21 -22 -28
-51 -50 1 -45 -41 -18 -20 -27
-52 -50 1 -47 -45 -23 -16 -25
-53 -62 0 -47 -49 -24 -22 -31
-54 -73 0 -48 -55 -23 -21 -33
-56 -74 0 -49 -59 -29 -18 -41
-59 -68 3 -42 -54 -30 -22 -33
-63 -74 -4 -43 -41 -20 -26 -36
-64 -74 -6 -43 -37 -16 -21 -39
-59 -64 -5 -39 -46 -23 -16 -35
-63 -64 -3 -40 -47 -23 -22 -34
-58 -67 -2 -39 -43 -20 -21 -29
-54 -67 -9 -45 -46 -22 -14 -35
-56 -67 -7 -51 -59 -21 -20 -32
-54 -68 -10 -49 -64 -24 -21 -26
-52 -67 -13 -51 -56 -25 -22 -35
-46 -58 -5 -43 -53 -26 -18 -30
-45 -59 -7 -33 -43 -27 -14 -31
-49 -61 -5 -31 -43 -29 -14 -22
-45 -53 1 -27 -42 -27 -9 -24
-42 -46 1 -24 -38 -29 -11 -24
-43 -51 6 -17 -36 -26 -8 -19
-43 -55 3 -18 -41 -23 -3 -16
-40 -51 7 -21 -47 -19 -5 -18
-31 -57 8 -13 -49 -17 -6 -14
-28 -65 0 -14 -43 -21 -13 -19
-25 -67 -1 -10 -50 -37 -11 -19
-20 -70 -11 -15 -43 -45 -19 -18
-12 -65 -18 -7 -42 -53 -18 -13
-8 -55 -26 0 -34 -58 -16 -15
0 -45 -29 0 -24 -52 -8 0
2 -36 -29 2 -10 -42 3 7
18 -33 -28 6 -3 -26 8 22
27 -27 -23 11 1 -15 26 25
34 -15 -24 14 3 -2 32 37
38 -30 -21 16 8 1 29 39
45 -29 -20 15 7 -3 41 43
41 -23 -14 19 9 3 43 44
42 -33 -14 24 1 11 46 63
46 -27 -15 10 10 17 51 51
58 -15 -10 15 11 20 59 57
60 -22 -22 24 19 25 70 63
71 -19 -30 19 30 32 91 77
87 -2 -27 30 39 40 97 86
104 10 -29 32 56 61 103 103
103 19 -32 31 71 68 114 111
107 24 -43 27 72 73 123 114
116 38 -43 34 70 88 130 119
124 43 -41 25 68 106 136 135
121 50 -34 37 80 95 153 142
118 49 -49 39 84 94 168 146
116 56 -51 29 86 100 166 144
124 65 -45 36 95 115 178 155
130 73 -51 39 103 124 183 167
136 75 -56 29 108 142 187 174
129 85 -53 40 114 145 201 192
151 107 -63 36 127 150 219 199
166 118 -50 42 130 160 231 209
170 121 -54 53 127 174 237 220
163 123 -54 54 145 178 235 227
160 109 -61 47 144 189 226 214
152 121 -62 55 140 190 232 211
152 118 -68 65 147 189 237 216
157 116 -69 59 158 182 242 212
170 126 -62 71 169 185 244 208
158 131 -68 73 170 191 243 218
148 131 -70 68 175 206 248 218
150 142 -58 74 170 211 255 235
166 157 -62 81 189 209 245 226
173 166 -60 83 203 208 248 230
169 164 -63 98 201 204 244 224
157 153 -53 106 193 200 223 208
151 135 -53 103 187 198 201 194
149 124 -48 92 192 192 206 188
145 130 -59 104 189 190 201 176
131 116 -76 91 184 189 192 169
122 101 -69 102 189 184 182 158
121 95 -63 97 168 168 182 160
106 94 -51 91 173 170 169 138
95 89 -42 91 168 165 163 136
93 94 -36 100 180 162 154 128
89 96 -18 103 175 167 146 129
84 94 -14 102 170 157 137 115
68 72 -5 99 162 150 124 102
58 57 0 101 160 143 113 83
51 49 3 103 145 132 106 72
36 43 7 96 136 124 91 66
17 21 3 72 112 117 75 58
14 14 6 69 108 108 68 47
17 3 11 66 93 85 69 36
0 -3 21 68 96 80 51 22
-10 -17 22 59 87 70 36 22
-7 -21 24 46 82 63 28 11
-9 -14 29 46 65 57 17 16
-21 -11 32 44 61 51 7 6
-19 -16 35 42 60 49 3 3
-16 -24 26 34 49 41 1 0
-17 -33 23 25 26 29 -7 -9
-20 -39 25 23 21 24 -9 -10
-21 -48 18 21 27 18 -11 -19
-23 -53 17 19 30 11 -17 -22
-23 -61 11 5 15 7 -23 -23
-27 -63 10 5 14 2 -31 -28
-28 -60 19 7 8 -2 -34 -26
-35 -61 22 8 9 -3 -35 -31
-31 -63 29 12 9 -2 -41 -29
-29 -65 20 11 4 -4 -41 -35
-35 -67 13 6 3 0 -46 -38
-35 -73 15 6 5 -6 -47 -36
-35 -68 13 5 0 -10 -46 -41
-38 -66 13 4 -2 -11 -50 -46
-41 -70 11 7 -3 -17 -50 -48
-39 -67 8 1 0 -18 -50 -46
-39 -67 11 3 1 -15 -52 -47
-43 -72 12 6 1 -18 -58 -51
-46 -75 18 1 -5 -24 -60 -50
-50 -84 9 -1 -11 -30 -62 -53
-55 -86 8 -4 -12 -29 -68 -53
-52 -74 12 -3 -8 -30 -64 -50
-53 -75 16 4 -7 -31 -61 -48
-55 -78 11 2 -15 -36 -61 -47
-52 -80 5 -7 -22 -40 -66 -53
-53 -83 2 -6 -22 -43 -75 -55
-51 -85 0 -8 -20 -44 -76 -54
-57 -84 -3 -9 -20 -41 -78 -58
-58 -82 -2 -4 -18 -47 -81 -58
-55 -76 2 1 -14 -46 -79 -52
-55 -73 6 6 -1 -41 -72 -54
-61 -75 10 7 -4 -45 -72 -53
-61 -72 12 2 -16 -38 -71 -49
-56 -68 10 1 -20 -37 -71 -51
-54 -68 7 7 -19 -39 -69 -46
-54 -66 5 6 -13 -39 -62 -42
-52 -68 9 9 -3 -41 -61 -45
-48 -71 13 9 -1 -39 -63 -43
-55 -74 12 9 -1 -36 -65 -45
-65 -76 10 10 -6 -38 -64 -47
-66 -78 10 6 -4 -33 -67 -48
-64 -73 15 5 -2 -35 -67 -41
-62 -72 16 6 -4 -43 -59 -39
-71 -72 14 8 -7 -41 -56 -40
-70 -73 19 9 -3 -41 -60 -39
-72 -74 24 6 -5 -40 -61 -40
-71 -70 20 1 -6 -36 -64 -36
-72 -70 17 1 -5 -37 -66 -39
-70 -63 14 3 -5 -35 -64 -42
-63 -58 24 5 -6 -36 -64 -36
-56 -58 26 10 0 -40 -62 -38
-58 -55 22 14 -3 -42 -60 -40
-58 -60 19 16 2 -37 -62 -41
-55 -63 21 11 4 -40 -62 -38
-54 -58 18 9 1 -37 -56 -34
-56 -66 15 13 0 -33 -53 -31
-58 -72 16 12 1 -36 -47 -34
-57 -68 28 9 6 -35 -44 -33
-55 -72 31 15 7 -34 -46 -29
-58 -71 30 14 7 -31 -41 -28
-63 -71 25 12 10 -27 -47 -28
-66 -73 28 10 7 -30 -49 -30
-67 -64 23 2 3 -31 -48 -31
-71 -60 26 1 2 -26 -47 -28
-67 -62 24 6 7 -28 -46 -31
-68 -64 31 1 7 -25 -46 -29
-66 -58 39 2 9 -28 -43 -26
-65 -53 35 4 7 -30 -40 -25
-64 -59 30 0 4 -24 -44 -26
-61 -67 32 -2 1 -28 -50 -31
-53 -61 32 -7 2 -31 -46 -31
-55 -63 35 -6 -1 -29 -49 -30
-55 -62 39 4 0 -34 -51 -33
-55 -61 35 1 3 -39 -45 -31
-52 -59 27 -2 5 -32 -48 -34
-51 -57 31 3 0 -32 -49 -34
-52 -62 14 -8 0 -34 -50 -42
-53 -73 15 -13 0 -32 -56 -44
-52 -74 18 -13 -9 -40 -54 -39
-54 -71 19 -23 -9 -39 -48 -34
-59 -77 24 -22 -2 -39 -49 -30
-62 -72 23 -17 0 -37 -40 -35
-64 -73 28 -18 1 -38 -42 -37
-72 -85 31 -25 -4 -38 -47 -35
-72 -82 28 -33 -14 -37 -51 -39
-64 -88 26 -32 -13 -40 -51 -38
-60 -85 28 -32 -14 -40 -47 -41
-64 -72 37 -29 -12 -39 -47 -39
-64 -77 39 -30 -7 -35 -55 -40
-59 -81 29 -28 -16 -37 -55 -42
-57 -75 20 -32 -17 -42 -56 -49
-61 -79 25 -35 -14 -50 -64 -54
-50 -67 15 -35 -18 -50 -63 -51
-39 -72 17 -37 -17 -52 -71 -49
-44 -81 15 -37 -21 -57 -66 -49
-46 -76 13 -42 -23 -59 -62 -53
-48 -81 27 -29 -9 -56 -61 -55
-45 -76 31 -25 -5 -49 -49 -47
-53 -80 30 -34 -12 -46 -50 -44
-61 -95 28 -37 -16 -48 -50 -45
-58 -96 21 -45 -26 -44 -51 -44
-58 -96 30 -44 -18 -43 -55 -49
-61 -106 33 -38 -22 -52 -56 -51
-62 -108 21 -40 -31 -55 -55 -51
-66 -105 29 -50 -28 -53 -65 -55
-65 -104 34 -46 -26 -50 -64 -55
-68 -104 22 -48 -22 -51 -70 -58
-77 -115 15 -51 -25 -50 -80 -69
-68 -103 4 -53 -37 -57 -75 -68
-54 -86 18 -58 -29 -61 -79 -63
-49 -79 22 -38 -24 -62 -72 -58
-51 -82 8 -41 -31 -64 -65 -54
-57 -87 24 -51 -26 -51 -59 -56
-54 -86 32 -45 -30 -52 -67 -62
-56 -91 31 -40 -39 -56 -72 -65
-67 -104 24 -39 -39 -59 -67 -67
-63 -111 20 -43 -38 -63 -71 -69
-52 -110 26 -44 -33 -68 -74 -74
-54 -109 23 -42 -38 -66 -77 -65
-53 -106 14 -37 -40 -70 -78 -62
-58 -111 8 -41 -42 -72 -87 -67
-57 -112 7 -48 -48 -72 -92 -69
-61 -105 0 -43 -45 -71 -80 -66
-72 -106 -1 -38 -39 -60 -71 -66
-65 -109 1 -37 -38 -68 -76 -71
-62 -118 7 -43 -32 -65 -85 -70
-68 -112 12 -51 -41 -63 -79 -64
-68 -106 11 -46 -47 -70 -78 -69
-66 -118 22 -38 -47 -64 -88 -68
-60 -122 17 -44 -53 -67 -89 -75
-64 -115 14 -49 -52 -66 -87 -76
-59 -112 15 -43 -49 -72 -86 -63
-49 -110 12 -41 -49 -74 -90 -70
-55 -114 6 -48 -54 -81 -91 -79
-59 -112 -1 -49 -55 -81 -89 -73
-50 -103 -7 -47 -53 -76 -96 -70
-48 -104 -14 -46 -53 -71 -93 -78
-57 -111 -13 -41 -47 -68 -90 -83
-57 -113 -11 -32 -48 -74 -91 -82
-62 -114 -12 -30 -45 -68 -88 -79
-64 -118 -4 -38 -42 -61 -88 -74
-63 -105 -4 -35 -39 -57 -85 -78
-63 -105 -1 -28 -43 -57 -87 -75
-60 -110 1 -32 -49 -63 -89 -69
-63 -110 4 -42 -53 -64 -89 -74
-71 -117 -3 -44 -61 -67 -92 -81
-70 -119 2 -42 -61 -71 -98 -83
-66 -105 6 -42 -51 -67 -97 -77
-65 -103 0 -49 -44 -62 -97 -83
-67 -111 3 -42 -48 -64 -96 -83
-72 -110 5 -37 -52 -67 -92 -84
-70 -106 3 -43 -47 -69 -95 -83
-63 -101 1 -47 -54 -63 -94 -79
-62 -94 1 -43 -49 -56 -86 -80
-60 -93 3 -36 -43 -57 -84 -73
-54 -94 3 -38 -41 -51 -81 -71
-58 -98 12 -40 -42 -50 -80 -77
-60 -100 7 -41 -44 -53 -81 -76
-65 -107 7 -44 -52 -53 -86 -84
-63 -111 14 -34 -49 -64 -88 -82
-60 -109 10 -39 -42 -68 -95 -88
-60 -103 9 -38 -45 -59 -97 -84
-62 -97 10 -28 -46 -59 -83 -81
-55 -98 6 -38 -47 -61 -84 -76
-45 -99 7 -48 -52 -63 -85 -65
-49 -96 -1 -43 -53 -61 -80 -78
-57 -99 0 -41 -53 -66 -86 -78
-54 -104 6 -40 -42 -58 -86 -69
-50 -92 12 -27 -34 -51 -87 -77
-44 -81 17 -27 -37 -47 -81 -68
-56 -86 12 -31 -26 -51 -73 -77
-58 -82 9 -35 -32 -70 -78 -70
-53 -85 16 -46 -44 -75 -80 -68
-61 -88 19 -48 -43 -67 -84 -76
-75 -96 31 -50 -48 -74 -88 -74
-70 -106 30 -50 -47 -68 -85 -69
-70 -96 40 -51 -44 -65 -83 -71
-61 -89 41 -54 -44 -66 -81 -62
-58 -94 23 -65 -39 -67 -82 -57
-47 -87 18 -66 -44 -82 -80 -63
-42 -66 12 -60 -54 -94 -76 -56
-34 -55 10 -59 -41 -84 -73 -45
-32 -38 5 -43 -17 -61 -55 -39
-14 -26 8 -36 -1 -41 -46 -21
-7 -19 8 -29 4 -29 -31 -21
-12 -21 4 -27 9 -25 -32 -21
-10 -35 1 -28 17 -20 -31 -17
0 -30 -6 -32 10 -28 -31 -20
-4 -30 -4 -45 -4 -33 -36 -20
-10 -36 -1 -50 -15 -34 -43 -20
-10 -35 -11 -44 -8 -38 -44 -18
-20 -43 -4 -49 -20 -44 -50 -23
-18 -45 -3 -53 -31 -50 -49 -26
-24 -42 -8 -54 -35 -51 -52 -34
-14 -42 -12 -54 -38 -54 -60 -31
-13 -47 -14 -56 -45 -63 -61 -35
-25 -47 -26 -63 -46 -63 -68 -37
-33 -56 -25 -62 -51 -56 -70 -44
-25 -49 -24 -58 -56 -59 -65 -41
-33 -47 -17 -60 -54 -58 -67 -45
-37 -51 -10 -55 -49 -64 -65 -35
-41 -66 -21 -62 -51 -71 -59 -45
-48 -61 -8 -62 -59 -71 -61 -47
-46 -54 2 -66 -54 -73 -72 -50
-42 -54 5 -65 -53 -77 -75 -55
-52 -55 0 -59 -68 -84 -71 -58
-59 -67 -3 -61 -73 -76 -86 -54
-64 -78 -1 -61 -72 -81 -88 -51
-66 -76 0 -67 -73 -88 -90 -61
-69 -79 6 -65 -70 -89 -101 -60
-76 -84 0 -67 -67 -97 -101 -60
-85 -84 -5 -81 -84 -96 -98 -74
-87 -93 -12 -89 -91 -85 -107 -67
-84 -91 -14 -101 -93 -78 -105 -68
-71 -90 -15 -107 -99 -89 -91 -60
-63 -104 -29 -107 -97 -92 -92 -59
-70 -112 -37 -110 -101 -93 -98 -71
-66 -120 -41 -116 -117 -100 -92 -73
-66 -132 -26 -109 -113 -101 -101 -71
-77 -131 -4 -110 -114 -106 -104 -73
-77 -123 2 -108 -124 -107 -96 -71
-80 -134 -2 -94 -121 -116 -93 -68
-90 -136 1 -96 -132 -110 -101 -81
-86 -123 3 -103 -128 -114 -104 -77
-84 -116 13 -97 -106 -125 -115 -76
-82 -105 15 -105 -115 -123 -123 -75
-92 -105 4 -111 -119 -120 -125 -78
-94 -111 -4 -108 -119 -121 -120 -84
-79 -123 15 -101 -129 -122 -119 -91
-82 -133 1 -95 -129 -121 -121 -74
-75 -144 8 -96 -127 -136 -139 -92
-77 -118 15 -83 -134 -146 -141 -81
-103 -167 34 -58 -126 -151 -173 -103
-101 -158 56 -18 -115 -158 -184 -119
-143 -167 118 18 -118 -162 -178 -114
-142 -181 114 117 -75 -151 -198 -145
-88 -155 123 102 -55 -111 -161 -161
-55 -134 110 102 -7 -119 -148 -145
-37 -114 97 60 -29 -107 -123 -129
2 -64 37 -12 -55 -60 -61 -104
27 -20 34 -103 -64 -3 -10 -49
74 32 0 -171 -95 59 45 -22
107 70 -24 -173 -112 168 91 28
166 131 -65 -122 -17 214 171 102
239 199 -69 -39 107 352 319 178
357 324 -49 215 373 551 428 301
481 418 -39 363 659 756 608 411
533 476 -21 491 816 941 730 521
542 485 -41 566 904 1010 825 603
527 507 -37 536 894 969 815 619
516 518 -47 543 844 909 785 634
497 513 -6 519 810 827 746 637
438 454 -7 455 754 666 710 641
376 453 54 359 579 496 606 609
257 419 46 229 397 282 501 528
116 388 101 33 209 116 334 445
33 363 86 -106 43 -44 166 325
-29 276 63 -261 -32 -143 63 233
-89 209 9 -328 -113 -191 -21 208
-138 149 -22 -422 -216 -256 -58 154
-164 134 -89 -483 -258 -272 -117 90
-163 84 -102 -551 -278 -260 -124 49
-144 57 -159 -561 -295 -260 -122 45
-141 9 -176 -545 -289 -243 -115 23
-108 -13 -205 -478 -275 -235 -135 -11
-123 -63 -181 -429 -277 -207 -133 -23
-88 -76 -178 -381 -234 -212 -157 -50
-99 -102 -148 -334 -225 -187 -153 -65
-79 -97 -143 -296 -218 -155 -149 -67
-85 -128 -126 -256 -231 -138 -114 -47
-58 -99 -111 -236 -201 -113 -97 -39
-51 -99 -98 -215 -194 -108 -69 -48
-38 -100 -84 -168 -171 -102 -69 -30
-42 -123 -88 -166 -182 -101 -59 -37
-26 -113 -70 -153 -155 -101 -70 -48
-21 -123 -72 -144 -160 -114 -69 -57
-30 -119 -64 -134 -145 -104 -70 -57
-45 -124 -64 -124 -137 -113 -60 -60
-36 -106 -39 -105 -144 -103 -58 -49
-30 -84 -34 -84 -130 -102 -59 -42
-34 -86 -2 -74 -120 -96 -54 -44
-45 -87 -13 -56 -116 -103 -49 -56
-59 -80 5 -54 -124 -84 -54 -56
-47 -88 3 -51 -108 -69 -63 -52
-49 -83 -4 -41 -100 -63 -56 -51
-58 -88 -5 -35 -86 -60 -59 -60
-61 -98 2 -22 -78 -72 -53 -62
-51 -84 3 -22 -75 -86 -54 -65
-53 -94 0 -28 -74 -79 -55 -69
-53 -89 -4 -29 -73 -73 -56 -59
-60 -98 -7 -40 -63 -72 -53 -56
-64 -97 -9 -38 -55 -70 -53 -60
-63 -106 -9 -38 -62 -67 -55 -49
-74 -110 -15 -38 -62 -58 -45 -48
-72 -115 -16 -48 -67 -58 -49 -47
-70 -118 -4 -49 -65 -51 -55 -51
-74 -117 -14 -49 -66 -54 -52 -53
-86 -123 -22 -48 -76 -54 -47 -53
-73 -120 -25 -50 -74 -59 -51 -57
-62 -111 -14 -52 -61 -56 -54 -52
-62 -107 -19 -50 -45 -53 -48 -52
-74 -107 -17 -49 -45 -48 -44 -58
-70 -107 -9 -42 -48 -39 -50 -51
-65 -115 -14 -48 -54 -42 -49 -50
-68 -114 -19 -56 -53 -38 -43 -52
-73 -113 -14 -52 -48 -44 -40 -56
-70 -119 -14 -51 -56 -48 -47 -61
-73 -127 -12 -56 -62 -47 -48 -62
-75 -128 -18 -60 -59 -51 -49 -66
-74 -119 -17 -57 -54 -45 -47 -61
-74 -118 -21 -55 -46 -34 -41 -60
-74 -121 -16 -56 -38 -32 -42 -61
-71 -125 -11 -57 -50 -38 -42 -55
-76 -135 -17 -58 -59 -40 -43 -60
-81 -138 -10 -51 -57 -36 -43 -60
-82 -134 -1 -57 -48 -30 -38 -62
-84 -133 -4 -55 -54 -23 -39 -64
-87 -140 -9 -52 -62 -26 -39 -65
-88 -139 -11 -60 -62 -27 -36 -74
-87 -136 -2 -56 -59 -26 -37 -69
-86 -136 -6 -50 -54 -29 -38 -67
-87 -127 -9 -55 -47 -27 -35 -73
-83 -121 -12 -44 -48 -25 -34 -64
-75 -124 -13 -45 -45 -29 -35 -58
-68 -120 -11 -44 -40 -25 -31 -56
-68 -122 -25 -42 -46 -31 -31 -60
-68 -130 -26 -50 -56 -30 -37 -63
-65 -127 -27 -52 -61 -31 -37 -58
-64 -126 -32 -52 -54 -36 -37 -58
-67 -114 -32 -43 -52 -33 -35 -52
-68 -115 -38 -37 -39 -28 -33 -55
-74 -122 -36 -35 -33 -30 -34 -57
-72 -113 -30 -37 -44 -29 -30 -58
-69 -107 -23 -29 -41 -25 -33 -54
-69 -112 -14 -13 -33 -18 -28 -54
-65 -109 -8 -14 -32 -11 -20 -50
-67 -104 3 -6 -36 -2 -14 -51
-58 -104 1 1 -43 -6 -13 -39
-54 -114 -2 -7 -40 -6 -20 -49
-51 -123 -1 -2 -44 -22 -24 -55
-50 -116 -15 -4 -45 -32 -34 -60
-38 -115 -13 -6 -43 -39 -36 -43
-29 -108 -17 2 -37 -41 -27 -43
-13 -95 -32 7 -30 -46 -15 -35
-8 -96 -41 11 -14 -36 -8 -29
11 -87 -50 19 -9 -33 0 -10
28 -76 -61 21 -5 -25 6 -3
40 -74 -64 23 0 -9 8 8
42 -75 -71 30 4 -12 18 13
56 -58 -77 28 6 -8 30 26
67 -53 -74 37 19 7 39 32
73 -56 -76 47 17 19 52 55
73 -52 -76 41 34 24 60 49
81 -48 -76 49 36 28 67 54
78 -45 -81 54 35 42 75 58
87 -39 -86 50 38 46 92 77
106 -30 -92 61 52 58 99 87
129 -12 -90 67 62 70 109 98
130 -5 -89 69 72 73 122 105
132 0 -105 66 72 83 136 119
151 11 -107 76 78 100 140 131
165 14 -111 76 84 116 149 138
158 30 -121 81 106 119 163 143
155 42 -123 85 113 129 172 151
166 54 -116 92 114 135 182 160
176 54 -122 96 121 143 195 169
175 54 -116 98 137 153 206 177
178 63 -121 100 149 169 220 179
173 72 -109 117 156 176 224 203
178 79 -119 113 169 185 236 203
179 88 -116 121 174 198 247 211
181 96 -116 141 182 220 260 215
180 105 -110 141 187 232 262 218
178 111 -111 142 200 255 260 219
165 114 -113 152 204 262 261 221
163 121 -110 158 206 271 262 215
154 119 -97 155 208 270 270 210
146 123 -96 161 216 281 263 198
142 119 -97 164 215 279 262 196
128 108 -89 160 217 281 259 187
124 117 -66 162 204 277 263 190
124 127 -51 163 206 278 253 183
120 114 -29 159 203 271 246 183
114 108 -32 157 189 248 232 164
98 103 -25 143 177 238 214 151
90 100 -14 149 178 230 203 138
90 101 -15 145 168 215 187 129
78 88 -13 143 166 205 171 115
67 83 -22 133 154 191 163 107
73 76 -20 136 154 181 148 101
68 61 -16 125 135 164 151 91
65 62 -21 121 133 161 138 77
61 43 -21 124 128 144 124 76
54 22 -9 121 129 137 119 69
41 19 0 108 114 128 112 69
35 18 3 108 113 123 98 60
29 2 13 90 98 119 95 50
31 -2 14 89 90 103 87 41
22 -10 9 90 85 94 70 30
15 -12 11 89 78 89 68 31
8 -22 14 77 70 78 55 27
4 -32 11 65 68 69 41 14
4 -33 -4 50 59 62 42 7
5 -33 1 52 59 55 31 7
3 -44 8 51 54 41 25 2
-4 -45 10 35 49 34 21 -5
-8 -43 30 39 45 23 17 -2
-8 -31 31 49 47 22 16 1
-6 -37 33 36 46 36 5 -2
-16 -55 25 35 33 30 -4 -16
-27 -60 18 31 16 20 -11 -23
-19 -62 26 27 16 13 -17 -20
-10 -61 32 36 17 0 -8 -24
-14 -57 25 40 22 1 0 -23
-20 -67 21 31 24 3 -11 -23
-10 -68 23 29 24 0 -20 -26
-14 -65 19 26 14 0 -24 -27
-29 -74 11 21 12 2 -30 -36
-25 -74 12 22 13 -5 -28 -34
-8 -68 15 21 18 -12 -26 -29
-12 -63 17 20 16 -8 -24 -29
-20 -55 22 29 17 -1 -14 -20
-21 -64 39 37 20 0 -14 -18
-20 -74 35 30 16 -6 -25 -23
-22 -70 32 24 8 -8 -24 -25
-22 -68 26 27 12 -6 -20 -27
-20 -69 23 32 17 -3 -24 -26
-18 -71 30 28 22 1 -29 -29
-19 -66 33 31 18 0 -25 -26
-23 -62 26 36 12 1 -24 -24
-26 -70 23 33 21 4 -28 -29
-24 -66 20 35 27 -1 -29 -34
-28 -55 14 34 17 -4 -28 -38
-32 -56 18 35 19 -1 -33 -33
-23 -59 25 44 20 -7 -34 -30
-24 -60 19 39 18 -5 -32 -36
-32 -60 22 39 19 -1 -24 -31
-25 -51 22 40 23 0 -25 -22
-21 -53 25 36 19 1 -27 -21
-26 -58 18 35 10 -3 -27 -28
-39 -64 15 33 13 -9 -34 -32
-41 -65 20 28 14 -14 -33 -30
-37 -57 22 24 11 -12 -32 -31
-36 -46 21 27 11 -4 -30 -26
-39 -49 15 28 12 -6 -27 -27
-38 -55 18 29 10 -13 -29 -24
-30 -50 27 32 9 -13 -27 -20
-31 -43 24 29 6 -7 -27 -22
-40 -49 23 28 7 -9 -30 -20
-35 -49 25 28 7 -14 -30 -19
-27 -38 28 30 9 -11 -28 -21
-29 -41 31 32 5 -11 -28 -16
-30 -51 32 34 7 -14 -30 -18
-29 -53 26 31 -2 -24 -32 -27
-31 -48 22 27 -9 -26 -31 -23
-26 -39 26 28 -3 -21 -27 -13
-27 -41 19 30 8 -19 -22 -14
-31 -50 23 26 15 -13 -22 -14
-33 -41 38 40 16 -18 -14 -6
-36 -34 41 35 18 -16 -9 -6
-40 -38 47 39 16 -3 -13 -5
-38 -31 42 42 12 -1 -5 0
-38 -32 41 32 10 -2 -5 0
-44 -40 45 29 5 -5 -10 3
-49 -35 40 31 10 -8 -8 1
-49 -32 37 28 7 -4 -5 3
-45 -30 39 26 8 -3 -7 6
-46 -20 41 27 10 -8 -8 1
-45 -18 33 28 14 -7 -11 0
-42 -21 33 32 12 -3 -10 5
-30 -16 39 37 13 -7 -6 6
-26 -13 39 35 15 0 -10 5
-29 -8 35 41 25 7 -5 8
-20 -1 33 35 23 2 0 22
-18 -1 35 29 23 7 5 20
-30 -3 42 30 16 8 7 16
-33 -5 46 28 17 -1 8 11
-28 -6 49 26 16 -3 9 19
-23 -8 50 20 8 0 6 19
-23 -10 49 15 5 -2 9 16
-27 -16 37 15 10 1 6 21
-23 -20 36 14 10 -3 4 19
-22 -16 33 8 6 -10 6 13
-30 -13 39 11 9 -2 10 17
-27 -6 48 24 17 0 14 20
-20 0 53 22 17 5 19 26
-20 2 54 18 16 10 19 26
-24 0 52 19 16 6 15 23
-19 0 50 17 11 3 15 23
-10 -8 51 16 14 -3 7 22
-14 -2 50 12 14 -7 4 18
-14 0 47 11 5 -5 10 16
-17 0 49 26 14 0 11 20
-12 3 51 23 17 -4 14 24
-4 3 41 12 7 -3 17 20
-8 -3 41 20 5 -1 13 20
-6 -8 38 19 4 -6 14 20
-4 -6 38 13 9 -3 13 18
-10 -8 41 21 15 -1 9 22
-7 2 41 15 17 3 16 28
-12 3 45 14 23 6 21 29
-22 -8 46 20 16 1 19 25
-22 -8 45 10 2 1 16 19
-29 -12 46 9 -3 6 14 13
-27 -20 45 9 -6 0 5 15
-19 -17 41 0 -1 -4 6 18
-18 -5 37 0 5 -7 9 18
-12 4 45 7 8 -9 10 21
-17 0 48 2 7 -5 8 18
-23 -10 39 0 0 -6 2 10
-15 -2 37 5 -3 -3 4 11
-7 5 45 6 7 -5 0 16
0 9 49 17 11 -10 5 12
-1 5 37 16 0 -14 8 13
-8 -5 34 2 -6 -15 1 12
-6 -9 38 2 -11 -22 -7 9
-6 -11 25 -3 -11 -25 -7 2
-10 -14 27 -3 -3 -17 -2 0
-12 -13 24 2 -5 -17 0 6
-7 -9 32 1 -1 -20 2 14
-4 -5 39 2 -6 -16 4 18
-11 -1 30 6 -13 -16 6 16
-12 -14 33 -2 -6 -14 4 15
-10 -21 38 -5 -9 -16 -5 6
-15 -15 40 0 -17 -25 -6 5
-19 -30 31 -3 -16 -24 -1 10
-19 -32 37 0 -6 -21 -3 6
-18 -23 51 6 1 -19 -3 0
-18 -18 48 4 -6 -18 -5 1
-17 -21 37 6 -18 -22 -11 3
-16 -29 30 6 -22 -24 -17 -1
-12 -24 32 0 -22 -31 -17 -6
-11 -10 26 5 -22 -36 -13 -4
-11 -12 17 6 -16 -35 -12 8
-11 -18 12 -5 -11 -30 -13 4
-16 -17 25 0 -14 -24 -17 -2
-16 -23 39 6 -14 -30 -13 -1
-12 -19 31 1 -16 -31 -10 0
-8 -29 33 4 -17 -25 -13 8
-6 -31 29 -1 -23 -34 -9 3
-11 -25 25 -5 -30 -31 -10 9
-14 -33 21 1 -28 -27 -12 11
-11 -39 19 -10 -23 -32 -16 -3
-19 -41 29 -12 -25 -30 -20 -5
-23 -30 36 2 -24 -33 -12 -2
-13 -20 37 4 -18 -31 0 5
-16 -28 35 1 -20 -22 -6 5
-24 -32 31 5 -16 -23 -10 -2
-14 -21 26 1 -22 -26 -9 3
-6 -24 31 0 -16 -26 -17 9
-12 -22 32 5 -13 -28 -16 7
-7 -6 27 -6 -20 -22 -6 5
-9 -11 38 11 -12 -14 0 13
-7 -19 33 14 -16 -25 1 23
-5 -26 26 -9 -19 -25 0 7
-21 -41 28 1 -22 -20 -9 -6
-21 -42 33 0 -33 -27 -15 -3
-19 -36 34 -6 -29 -25 -17 -2
-20 -38 34 9 -18 -22 -17 5
-5 -25 34 14 -11 -27 -4 9
-7 -18 35 13 -9 -24 1 1
-8 -26 35 17 -8 -21 -8 6
-8 -21 24 7 -23 -20 -17 6
-14 -21 18 -1 -33 -15 -17 -1
-8 -18 20 13 -22 -18 -11 8
6 -5 24 8 -10 -10 -5 16
-3 -9 27 1 -12 -12 2 6
-8 -19 23 11 -20 -25 0 11
-4 -26 31 3 -25 -25 -6 5
-7 -22 30 9 -23 -17 1 2
-8 -19 27 10 -15 -8 -6 12
9 -4 32 12 1 0 -7 20
23 0 40 26 -1 1 8 26
32 -7 34 24 -13 -7 7 28
23 -17 36 17 -19 -5 6 20
8 -25 21 17 -23 -2 0 7
14 -19 17 14 -21 -5 -12 1
14 -7 20 19 -13 3 -11 6
12 -2 14 14 -4 -3 -9 -9
11 -11 29 27 -2 -4 -6 1
8 -11 35 30 -8 -9 0 0
5 -5 36 18 -8 -20 -12 -8
0 -4 43 18 -15 -16 -11 5
7 14 44 20 -3 -7 4 7
18 30 61 31 2 0 10 21
24 31 55 29 5 9 16 28
7 16 61 22 2 16 16 19
11 -2 60 19 -1 10 10 19
13 -7 59 17 -2 -1 4 8
16 0 42 23 0 0 1 12
9 0 20 12 14 0 -4 11
9 0 26 6 15 -3 9 13
6 10 31 13 0 -9 25 29
12 23 34 12 12 7 22 33
16 25 35 10 9 14 38 40
20 26 28 15 22 16 40 40
24 38 33 34 29 31 30 47
37 42 36 41 30 41 32 43
28 37 46 40 39 42 30 39
27 33 45 35 24 34 18 33
27 35 43 44 23 17 23 32
30 28 46 46 22 4 20 35
23 33 37 43 17 7 28 27
28 48 42 44 27 25 33 29
36 53 39 54 25 32 33 40
40 51 33 50 29 32 28 50
37 48 16 34 37 40 32 45
36 50 13 29 26 37 28 40
38 51 11 24 11 24 23 43
17 49 10 11 -2 17 14 33
21 49 6 11 8 7 9 41
11 42 1 4 0 3 14 33
14 47 4 -10 -8 1 10 27
8 41 7 -18 -9 0 -4 24
6 37 -1 -22 -11 -7 -9 25
-1 31 -14 -27 -28 -21 -6 10
-5 26 -16 -24 -36 -19 -21 12
-10 24 -11 -15 -31 -12 -12 12
-8 25 -3 -23 -28 -16 -11 8
-14 6 7 -17 -23 -14 -15 13
-23 10 9 -11 -34 -14 -7 16
-26 9 7 -18 -29 -11 -5 10
-34 0 16 -12 -25 -3 -9 6
-19 8 8 -24 -24 -9 -12 2
-20 10 2 -31 -21 -13 -15 5
-19 -4 4 -31 -31 -16 -16 9
-28 -11 -4 -38 -40 -14 -15 -1
-38 -25 -7 -49 -50 -13 -20 -10
-30 -38 -3 -40 -53 -21 -26 -6
-34 -32 0 -46 -52 -37 -27 -1
-39 -28 4 -55 -51 -43 -31 -3
-39 -22 3 -45 -66 -48 -26 -7
-43 -28 -4 -55 -75 -39 -34 -13
-42 -33 6 -67 -70 -31 -47 -14
-34 -32 12 -60 -62 -39 -43 -7
-37 -34 -4 -65 -71 -46 -46 -7
-40 -31 2 -60 -79 -51 -54 -11
-38 -24 -2 -57 -76 -53 -38 -11
-34 -37 1 -65 -66 -51 -44 -26
-42 -53 0 -62 -76 -45 -52 -14
-39 -52 2 -67 -85 -52 -54 -28
-39 -45 -1 -66 -83 -61 -56 -15
-48 -67 5 -51 -78 -66 -81 -27
-48 -41 7 -30 -71 -83 -75 -31
-96 -69 64 23 -78 -107 -93 -25
-100 -66 81 120 -49 -85 -105 -69
-44 -40 85 77 -31 -53 -74 -82
-14 -45 74 83 3 -51 -92 -61
-16 -40 77 63 -30 -21 -70 -78
18 5 42 8 -31 -25 -12 -39
10 22 45 -65 -19 -15 21 7
28 77 27 -137 -75 52 43 8
62 108 11 -168 -101 119 55 21
82 104 -13 -164 -57 125 109 68
136 140 -9 -127 20 237 219 124
271 244 -17 110 260 365 285 205
398 332 2 270 540 577 450 332
505 406 19 409 748 793 625 455
546 428 -17 511 874 886 744 544
547 462 -24 511 865 865 747 581
563 509 -42 516 803 829 731 571
568 497 -13 502 773 753 691 600
552 471 -23 461 746 650 700 657
524 530 3 427 643 543 664 651
410 507 -7 366 521 400 631 628
282 474 49 188 357 300 498 592
197 451 57 53 196 117 341 447
96 372 36 -109 87 -17 210 327
21 289 -29 -225 -37 -103 86 303
-31 240 -53 -339 -158 -198 28 230
-83 230 -133 -433 -215 -230 -38 185
-89 209 -154 -497 -230 -221 -48 156
-80 198 -198 -469 -221 -221 -47 142
-91 152 -198 -476 -215 -191 -61 107
-59 128 -195 -425 -203 -189 -86 60
-85 72 -188 -393 -199 -161 -83 37
-63 39 -191 -366 -170 -145 -107 7
-65 2 -167 -326 -165 -129 -108 4
-59 15 -164 -301 -168 -113 -101 2
-73 -6 -130 -267 -197 -99 -70 12
-41 9 -124 -235 -184 -81 -65 5
-38 -6 -106 -210 -171 -69 -36 -3
-14 -13 -103 -175 -145 -48 -30 6
-15 -39 -100 -157 -152 -49 -16 -1
4 -28 -91 -134 -128 -51 -37 -8
8 -40 -92 -130 -132 -63 -37 -17
5 -40 -83 -120 -113 -64 -40 -15
-5 -41 -77 -118 -118 -73 -36 -21
0 -29 -53 -99 -119 -66 -22 -13
-3 -26 -61 -85 -105 -63 -10 -7
-1 -17 -30 -89 -106 -53 -12 -8
-10 -12 -30 -69 -97 -54 -4 -15
-25 -9 -4 -54 -101 -45 -16 -4
-16 -19 -17 -53 -92 -37 -20 -4
-17 -10 -27 -52 -98 -23 -16 -19
-19 -12 -16 -44 -85 -25 -28 -27
-23 -19 -15 -31 -77 -30 -21 -29
-19 -14 -22 -31 -76 -44 -21 -34
-20 -19 -16 -33 -77 -44 -22 -40
-16 1 -11 -31 -72 -35 -24 -28
-21 -13 -1 -34 -57 -33 -13 -22
-32 -19 -6 -30 -53 -37 -19 -34
-30 -30 -5 -38 -64 -34 -25 -29
-39 -49 -10 -43 -66 -29 -25 -34
-42 -51 -8 -45 -71 -33 -33 -26
-40 -36 -4 -46 -66 -33 -27 -28
-43 -35 -15 -51 -73 -37 -26 -35
-47 -34 -5 -47 -77 -34 -22 -26
-37 -30 -14 -49 -72 -33 -20 -32
-44 -32 -18 -44 -65 -20 -29 -33
-44 -36 -26 -44 -56 -17 -32 -36
-44 -35 -21 -51 -47 -21 -30 -46
-41 -36 -9 -45 -50 -24 -30 -33
-41 -40 -12 -43 -55 -19 -27 -27
-45 -48 -8 -46 -53 -14 -24 -34
-50 -61 -3 -52 -55 -19 -26 -41
-52 -63 -3 -53 -65 -18 -27 -42
-56 -60 -7 -50 -68 -17 -20 -45
-52 -57 -16 -61 -66 -14 -23 -48
-44 -51 -9 -61 -58 -9 -26 -40
-48 -48 -16 -59 -54 -9 -22 -42
-59 -48 -14 -58 -48 -8 -21 -47
-48 -46 -6 -46 -50 -4 -20 -42
-45 -52 -15 -47 -48 -7 -21 -46
-47 -55 -14 -49 -45 -5 -26 -46
-45 -53 -14 -50 -46 -12 -26 -48
-49 -60 -13 -48 -53 -12 -26 -51
-53 -67 -13 -52 -58 -9 -25 -50
-55 -65 -13 -53 -60 -13 -20 -52
-59 -55 -10 -46 -58 -7 -21 -49
-61 -60 -16 -42 -48 2 -23 -48
-63 -63 -19 -44 -41 4 -17 -51
-60 -59 -20 -48 -50 -2 -17 -51
-61 -63 -19 -49 -53 -6 -24 -49
-58 -61 -16 -45 -47 -10 -21 -47
-56 -56 -23 -49 -51 -11 -14 -48
-57 -60 -25 -54 -58 -5 -22 -44
-55 -55 -28 -52 -61 -7 -17 -40
-47 -49 -30 -56 -55 -7 -13 -40
-42 -46 -25 -49 -49 -6 -13 -32
-45 -43 -28 -45 -38 -4 -10 -31
-46 -38 -29 -46 -37 -3 -9 -26
-44 -31 -19 -33 -38 1 -4 -27
-44 -24 -15 -29 -34 1 -2 -24
-42 -32 -6 -20 -23 4 1 -27
-43 -42 -8 -15 -29 9 3 -26
-45 -39 -3 -17 -40 13 5 -32
-37 -48 3 -12 -42 13 0 -23
-33 -59 -2 -12 -41 7 -7 -27
-28 -57 -3 -11 -49 -8 -4 -30
-30 -58 -16 -14 -40 -14 -12 -28
-20 -60 -23 -12 -40 -24 -9 -18
-12 -46 -32 -14 -37 -28 -7 -21
0 -36 -38 -12 -31 -27 0 -10
6 -30 -49 -7 -19 -21 8 -4
27 -21 -54 -8 -13 -14 17 17
43 -9 -59 1 -4 -5 33 28
58 6 -64 4 0 10 41 47
63 -2 -62 6 13 14 48 50
76 -1 -69 12 16 16 61 59
84 6 -62 17 24 30 66 64
88 2 -60 22 18 43 75 85
87 0 -61 22 31 55 82 83
99 11 -65 30 34 58 95 87
102 12 -74 32 35 69 108 88
116 13 -80 33 44 75 119 110
133 26 -89 39 63 84 126 111
148 36 -89 41 72 104 131 116
141 44 -87 49 84 104 141 127
142 52 -100 38 90 110 153 136
161 74 -97 49 93 127 162 147
173 81 -94 57 100 142 174 164
169 94 -95 65 114 143 188 168
172 102 -110 63 113 150 203 173
174 104 -114 62 112 162 206 183
191 114 -122 58 124 167 217 197
197 118 -127 59 136 171 228 206
198 120 -136 57 142 189 235 209
189 126 -133 57 144 191 240 222
190 142 -142 57 147 207 254 220
204 147 -129 70 152 221 267 237
210 153 -128 81 163 244 278 248
208 164 -121 79 178 252 291 257
206 161 -123 81 193 268 288 255
194 170 -114 101 191 280 288 261
180 178 -116 107 192 289 300 248
177 178 -99 108 200 296 304 252
184 188 -95 115 215 314 309 247
175 190 -100 120 214 324 313 242
159 168 -93 122 220 330 306 235
149 171 -77 119 206 315 310 236
145 189 -77 114 212 312 292 218
138 185 -68 115 214 310 280 218
120 190 -58 128 217 306 270 197
106 187 -40 127 207 292 253 185
102 168 -33 129 199 288 238 178
98 166 -20 123 185 278 239 172
89 161 -19 126 184 270 223 155
83 146 -28 122 166 260 209 155
87 145 -33 116 159 235 193 137
82 127 -34 93 141 210 184 124
75 120 -33 99 138 205 170 111
68 115 -30 95 137 188 159 96
64 99 -17 98 138 177 138 93
57 87 -16 85 122 168 125 90
51 81 -14 87 122 150 108 68
45 64 -5 85 114 140 104 64
44 63 -7 90 113 127 99 55
36 60 -6 85 102 116 86 49
34 55 -4 80 94 113 85 52
21 45 -3 69 81 107 80 48
17 39 -2 68 85 104 69 41
23 24 -12 62 80 98 63 32
18 14 -8 61 80 84 48 19
3 5 -9 55 72 67 36 9
3 9 -1 49 65 61 27 9
-1 9 10 46 60 54 18 3
-17 15 13 45 51 50 9 1
-13 3 13 36 51 49 4 2
-15 -8 7 33 43 43 1 -5
-23 -12 4 23 24 38 -5 -10
-24 -19 11 17 21 36 -8 -11
-18 -23 15 21 22 24 -7 -12
-20 -25 16 14 18 13 -9 -12
-24 -29 16 1 15 13 -13 -15
-29 -21 18 3 16 12 -16 -22
-26 -17 22 7 15 8 -24 -24
-31 -22 17 6 16 3 -29 -26
-33 -17 17 3 18 3 -33 -30
-30 -21 18 5 18 4 -33 -28
-34 -21 14 6 13 7 -33 -27
-35 -17 14 6 16 6 -32 -29
-34 -23 19 13 14 3 -26 -26
-35 -24 19 17 13 3 -22 -26
-33 -22 22 19 8 1 -22 -27
-27 -23 21 15 13 4 -26 -24
-33 -26 18 8 18 4 -27 -26
-37 -27 20 5 17 5 -34 -32
-36 -25 24 11 20 7 -35 -25
-34 -23 22 15 22 5 -33 -26
-38 -23 24 17 26 7 -36 -34
-40 -26 32 15 24 3 -32 -27
-46 -23 33 10 14 7 -27 -27
-47 -18 29 10 10 6 -28 -28
-40 -22 25 8 10 2 -27 -25
-40 -24 21 1 12 2 -28 -26
-37 -20 21 5 15 0 -30 -22
-36 -22 21 12 19 1 -30 -29
-40 -23 20 15 14 3 -36 -33
-46 -23 19 16 7 0 -36 -32
-42 -23 17 13 17 1 -39 -33
-34 -16 20 21 23 0 -41 -30
-35 -12 14 24 19 -2 -37 -36
-36 -10 13 19 12 -7 -37 -33
-34 -14 16 16 6 -9 -39 -30
-37 -16 17 18 5 -7 -43 -35
-39 -22 19 16 11 -11 -42 -35
-44 -25 16 13 12 -8 -43 -31
-40 -20 20 14 11 -11 -43 -31
-35 -15 29 14 13 -14 -36 -29
-41 -15 27 20 19 -7 -31 -25
-44 -12 24 16 13 -12 -31 -23
-41 -12 24 1 6 -6 -34 -26
-43 -9 27 3 7 -5 -36 -27
-43 -5 24 11 12 -10 -36 -27
-48 -6 22 13 12 -6 -29 -24
-45 -3 27 14 14 -4 -32 -26
-43 -5 33 12 14 -4 -39 -27
-44 -10 26 8 15 -5 -36 -28
-44 -17 24 10 13 -15 -42 -31
-41 -11 27 4 8 -19 -43 -33
-40 -2 32 4 4 -15 -40 -31
-39 -3 37 24 13 -15 -40 -21
-39 -4 29 22 12 -14 -31 -17
-36 -2 20 10 12 -6 -28 -24
-35 -8 28 13 18 -5 -33 -23
-35 -10 20 11 17 -8 -28 -22
-36 -13 17 7 16 -6 -28 -25
-41 -13 21 14 16 -6 -31 -24
-38 1 28 7 21 0 -23 -16
-37 -1 33 9 30 2 -21 -14
-48 -10 28 15 22 -2 -20 -19
-53 -14 24 -3 12 -5 -23 -27
-53 -18 34 -8 10 -3 -28 -24
-49 -13 38 0 8 -6 -29 -18
-48 -7 34 -4 9 -2 -19 -10
-49 0 33 -4 20 4 -10 -7
-40 10 44 2 27 1 -8 -6
-32 11 48 3 25 7 -12 -7
-42 -3 35 4 12 9 -19 -15
-44 -7 29 1 13 4 -27 -20
-30 -4 35 -6 18 -3 -30 -22
-24 9 28 4 21 -5 -23 -23
-25 15 22 8 22 3 -18 -12
-26 3 14 -3 27 6 -19 -18
-26 -4 21 -1 19 -1 -27 -22
-25 -4 25 -2 9 -10 -27 -23
-34 -2 24 -6 9 -3 -20 -22
-40 -10 24 -6 11 1 -19 -16
-31 -12 30 -13 18 -1 -18 -15
-28 -2 37 -12 13 0 -12 -13
-39 -1 33 -7 9 1 -8 -10
-41 -13 36 -17 14 3 -19 -16
-37 -17 36 -25 10 0 -22 -24
-40 -6 29 -26 5 -1 -24 -22
-34 -4 25 -25 8 -1 -24 -18
-31 -5 24 -23 13 2 -22 -25
-28 -8 25 -21 13 -1 -22 -27
-28 -5 23 -23 0 -8 -23 -27
-28 -1 21 -22 0 -10 -27 -25
-27 -4 18 -23 5 -7 -28 -30
-21 -4 21 -28 8 -5 -34 -30
-20 3 27 -21 1 -8 -25 -29
-20 -3 25 -20 -3 -19 -31 -29
-26 -14 26 -27 -4 -17 -35 -35
-31 -11 28 -29 -10 -13 -28 -38
-27 -8 28 -28 -12 -18 -29 -31
-26 -3 35 -27 -2 -15 -33 -28
-23 0 37 -24 0 -11 -32 -26
-18 -5 26 -27 -10 -18 -27 -27
-22 -10 20 -32 -16 -13 -32 -27
-22 -11 13 -31 -11 -15 -33 -32
-26 -11 2 -34 -5 -18 -34 -37
-32 -13 11 -36 -1 -12 -38 -35
-29 -5 21 -29 -7 -21 -33 -35
-29 -7 18 -29 -8 -18 -34 -34
-34 -12 21 -31 -7 -9 -35 -38
-37 -9 19 -31 -10 -18 -39 -44
-34 -7 19 -41 -21 -22 -47 -41
-30 -10 20 -39 -22 -23 -52 -40
-30 -3 18 -33 -17 -30 -49 -40
-29 -2 18 -37 -20 -36 -47 -43
-30 -2 22 -29 -25 -24 -45 -39
-22 3 15 -31 -28 -28 -43 -38
-17 0 2 -41 -30 -30 -45 -45
-19 -7 0 -35 -28 -32 -54 -45
-17 -7 -4 -34 -25 -40 -56 -48
-16 -5 -2 -35 -26 -38 -57 -52
-24 -18 4 -30 -29 -39 -58 -53
-22 -16 0 -32 -28 -40 -56 -49
-25 -11 -1 -33 -25 -33 -53 -45
-35 -18 8 -27 -26 -33 -55 -42
-36 -18 13 -30 -38 -40 -51 -44
-40 -20 7 -31 -47 -37 -48 -53
-35 -24 12 -26 -51 -38 -57 -48
-27 -19 15 -33 -46 -43 -56 -42
-30 -12 2 -41 -37 -42 -57 -45
-24 -16 0 -39 -37 -49 -60 -47
-30 -12 0 -40 -40 -49 -62 -52
-36 -13 2 -40 -41 -45 -69 -50
-27 -9 7 -35 -32 -48 -67 -48
-16 1 2 -38 -29 -56 -64 -44
-16 0 6 -27 -29 -52 -59 -43
-19 -7 6 -30 -35 -50 -57 -43
-24 -13 5 -40 -44 -55 -60 -38
-23 -25 -13 -43 -52 -62 -67 -39
-23 -25 -23 -51 -54 -62 -67 -48
-27 -17 -8 -47 -44 -54 -62 -50
-26 -16 -6 -40 -40 -52 -64 -49
-24 -15 -8 -35 -46 -52 -63 -47
-26 -20 -10 -35 -47 -56 -68 -51
-30 -15 -11 -32 -45 -59 -71 -50
-25 -2 -15 -37 -39 -55 -70 -48
-19 0 -17 -40 -37 -52 -77 -48
-19 0 -17 -40 -37 -56 -77 -46
-21 -2 -16 -46 -42 -56 -74 -47
-23 -4 2 -39 -35 -53 -66 -46
-17 2 6 -34 -31 -53 -57 -38
-19 -2 4 -41 -37 -48 -58 -43
-20 -11 0 -39 -41 -53 -64 -45
-21 -9 -3 -47 -47 -55 -67 -48
-19 -4 -1 -50 -44 -56 -70 -50
-15 -5 -5 -42 -41 -56 -73 -48
-12 -7 -7 -44 -36 -51 -70 -46
-17 0 -7 -49 -36 -51 -64 -48
-17 2 -6 -43 -36 -46 -62 -44
-15 -3 -3 -39 -35 -42 -66 -45
-20 -4 -9 -43 -39 -43 -64 -49
-24 -7 -13 -50 -50 -49 -65 -51
-15 -2 -3 -51 -41 -53 -69 -50
-13 0 -1 -44 -36 -57 -66 -52
-12 3 -3 -42 -33 -48 -67 -47
-14 8 4 -40 -31 -41 -63 -49
-13 9 3 -45 -41 -43 -65 -48
-11 4 7 -51 -45 -43 -72 -43
-16 5 3 -47 -45 -45 -67 -52
-18 4 0 -54 -53 -53 -66 -59
-7 0 6 -51 -41 -52 -70 -47
-2 8 13 -42 -34 -45 -68 -50
-4 11 15 -40 -37 -46 -66 -50
-16 5 11 -37 -35 -47 -71 -52
-10 18 1 -43 -34 -60 -77 -53
0 24 0 -53 -40 -60 -69 -57
-2 19 0 -45 -37 -49 -69 -55
-8 16 4 -42 -37 -57 -72 -52
-3 5 5 -44 -37 -53 -75 -56
-7 8 11 -44 -44 -52 -73 -58
-3 21 9 -43 -38 -50 -70 -52
2 15 0 -43 -30 -43 -68 -47
10 15 -6 -35 -32 -53 -63 -47
8 28 -3 -41 -40 -65 -64 -48
12 28 -2 -42 -37 -63 -63 -41
8 32 1 -27 -24 -54 -51 -32
24 48 5 -27 -6 -44 -47 -22
26 55 -1 -19 -2 -32 -35 -22
26 60 -7 -16 4 -25 -30 -20
22 56 0 -14 13 -19 -31 -13
26 55 -4 -16 12 -16 -33 -12
27 62 -3 -23 -1 -17 -33 -13
28 64 -1 -27 -10 -16 -40 -15
20 55 -12 -22 -9 -23 -40 -16
12 50 -15 -28 -18 -30 -38 -18
15 55 -17 -28 -25 -34 -36 -17
16 60 -13 -22 -18 -30 -38 -15
27 64 -18 -24 -17 -28 -41 -16
25 65 -18 -26 -20 -27 -42 -19
17 63 -23 -29 -21 -22 -44 -12
17 68 -32 -39 -29 -23 -48 -13
24 75 -30 -38 -26 -23 -40 -9
12 74 -24 -38 -27 -23 -38 -18
14 79 -22 -36 -25 -37 -42 -17
10 65 -30 -43 -27 -38 -43 -17
2 64 -30 -47 -38 -30 -48 -21
-3 62 -22 -59 -41 -39 -55 -29
0 66 -21 -54 -42 -45 -54 -27
5 70 -21 -50 -53 -54 -57 -31
-6 54 -21 -60 -63 -55 -68 -33
-26 38 -29 -56 -81 -63 -62 -38
-24 37 -29 -58 -93 -73 -76 -44
-23 35 -16 -58 -73 -66 -80 -39
-22 38 -21 -61 -60 -70 -75 -39
-23 34 -21 -60 -70 -63 -79 -46
-31 23 -16 -56 -76 -51 -84 -40
-14 23 -20 -68 -84 -59 -85 -41
-6 18 -20 -70 -88 -60 -75 -42
-24 9 -29 -75 -91 -60 -76 -44
-26 7 -32 -83 -88 -70 -81 -49
-26 -4 -43 -88 -94 -76 -79 -55
-30 -7 -42 -91 -92 -79 -91 -59
-38 -5 -21 -95 -97 -84 -92 -61
-41 1 -19 -96 -108 -81 -81 -62
-33 -1 -24 -94 -102 -89 -86 -62
-34 0 -32 -93 -111 -83 -92 -61
-46 18 -28 -92 -108 -86 -81 -58
-45 27 -2 -76 -95 -97 -88 -47
-29 39 -7 -81 -92 -90 -91 -44
-36 32 -10 -83 -89 -86 -90 -59
-42 21 -14 -83 -99 -88 -93 -54
-35 9 0 -84 -103 -84 -96 -62
-42 -8 -11 -77 -106 -89 -101 -53
-38 -22 -13 -85 -114 -106 -120 -66
-45 8 -9 -74 -120 -114 -118 -61
-83 -30 6 -49 -124 -128 -142 -80
-76 -18 31 -6 -114 -125 -146 -91
-98 -23 86 44 -95 -132 -139 -87
-102 -44 97 139 -42 -114 -171 -121
-32 -19 101 131 -18 -57 -136 -121
5 -1 65 122 20 -72 -121 -110
12 13 52 44 -28 -77 -109 -113
51 63 -2 -64 -94 -52 -53 -82
67 90 -20 -184 -101 -14 -17 -42
105 147 -44 -274 -150 47 37 -10
142 189 -80 -276 -154 176 104 45
198 236 -120 -196 -5 241 189 123
264 281 -106 -99 153 402 324 210
388 381 -95 151 421 573 425 306
483 455 -73 288 656 720 577 387
530 499 -38 382 739 861 674 491
541 507 -57 433 799 886 727 562
513 514 -49 405 756 813 698 557
508 519 -61 420 677 765 657 563
533 511 -36 408 648 654 625 568
484 460 -29 357 568 486 616 576
426 477 42 269 385 347 512 563
298 456 43 144 205 135 414 473
146 416 86 -33 13 -7 270 402
78 395 75 -140 -113 -131 112 302
18 328 53 -244 -157 -219 10 207
-18 283 -16 -281 -211 -247 -43 214
-41 236 -36 -360 -269 -285 -56 178
-62 234 -94 -417 -310 -305 -94 115
-73 221 -110 -480 -327 -270 -98 93
-67 195 -156 -469 -293 -268 -113 87
-81 145 -177 -464 -270 -261 -132 41
-41 138 -217 -434 -255 -253 -163 -11
-59 85 -196 -383 -239 -211 -159 -29
-39 68 -195 -338 -202 -202 -165 -41
-50 41 -171 -312 -193 -174 -161 -43
-40 48 -148 -281 -186 -145 -156 -47
-39 44 -141 -249 -188 -124 -110 -31
-7 59 -137 -235 -151 -85 -96 -27
-11 27 -134 -202 -140 -82 -70 -42
-2 30 -135 -175 -128 -76 -68 -34
-2 4 -130 -185 -139 -71 -63 -38
13 12 -112 -163 -124 -68 -72 -45
24 27 -109 -159 -119 -79 -64 -45
19 29 -104 -148 -97 -77 -57 -48
7 19 -102 -136 -101 -99 -56 -52
4 27 -75 -134 -115 -86 -58 -53
-6 29 -75 -116 -116 -74 -59 -59
-1 26 -44 -101 -118 -73 -65 -52
-3 26 -38 -92 -103 -89 -63 -63
-15 27 -14 -74 -105 -77 -59 -53
-4 19 -24 -60 -102 -67 -52 -48
-7 16 -20 -52 -109 -59 -51 -59
-10 14 -22 -49 -103 -65 -66 -68
-11 12 -41 -47 -88 -72 -71 -70
-9 21 -42 -48 -82 -80 -70 -75
-12 23 -54 -52 -85 -79 -68 -79
-9 33 -44 -47 -74 -66 -77 -68
-10 27 -33 -42 -62 -71 -66 -59
-26 24 -37 -43 -64 -75 -62 -68
-31 11 -27 -43 -70 -64 -66 -54
-32 8 -35 -42 -74 -57 -56 -57
-24 5 -32 -53 -80 -62 -61 -51
-24 3 -25 -59 -80 -63 -62 -48
-28 0 -40 -58 -79 -67 -59 -49
-27 -5 -37 -54 -84 -67 -52 -48
-21 -4 -33 -52 -83 -62 -54 -55
-22 0 -33 -53 -82 -55 -63 -51
-26 -5 -47 -59 -63 -49 -68 -55
-32 -14 -46 -57 -57 -56 -66 -65
-28 -6 -45 -55 -70 -61 -67 -68
-35 -11 -44 -57 -77 -56 -71 -68
-35 -22 -42 -61 -74 -59 -73 -65
-32 -26 -42 -66 -77 -71 -73 -69
-33 -24 -45 -62 -86 -72 -73 -69
-39 -26 -42 -60 -87 -71 -66 -67
-37 -25 -40 -65 -81 -68 -62 -68
-33 -18 -37 -63 -75 -61 -62 -64
-32 -12 -40 -52 -66 -52 -57 -59
-39 -8 -36 -50 -56 -48 -51 -59
-34 -8 -27 -49 -55 -40 -53 -60
-28 -10 -37 -50 -61 -39 -57 -62
-33 -15 -41 -52 -59 -41 -58 -64
-38 -20 -43 -54 -62 -48 -59 -65
-38 -21 -47 -50 -67 -48 -62 -67
-40 -24 -43 -52 -69 -46 -59 -67
-40 -26 -47 -56 -70 -51 -52 -69
-40 -23 -40 -51 -65 -52 -54 -63
-40 -20 -39 -47 -59 -45 -51 -59
-43 -11 -45 -49 -57 -40 -43 -59
-39 -8 -40 -45 -59 -35 -46 -52
-36 -7 -44 -45 -59 -35 -45 -53
-30 -4 -46 -42 -47 -33 -44 -51
-30 -6 -49 -39 -49 -33 -41 -50
-28 -7 -51 -38 -56 -28 -41 -53
-25 -9 -51 -38 -58 -29 -40 -47
-19 -7 -52 -36 -53 -32 -38 -49
-17 4 -52 -28 -52 -35 -36 -44
-19 1 -57 -27 -43 -27 -38 -48
-21 2 -58 -21 -43 -23 -34 -47
-14 6 -55 -23 -50 -22 -35 -46
-10 6 -52 -19 -47 -18 -35 -42
-6 4 -57 -10 -38 -13 -32 -40
1 7 -58 -9 -36 -8 -21 -35
10 10 -53 -4 -43 0 -16 -33
21 17 -48 0 -49 2 -11 -23
25 5 -47 -4 -45 4 -10 -26
27 0 -52 1 -48 4 -4 -25
31 0 -49 4 -45 12 -1 -27
32 -3 -39 9 -37 19 2 -17
34 -1 -33 18 -31 20 6 -16
35 2 -39 21 -26 19 17 -16
37 3 -37 25 -20 27 23 -14
44 11 -34 24 -12 32 32 -5
50 23 -34 29 -16 42 41 0
57 26 -34 28 -9 58 47 8
56 28 -32 33 -9 57 51 15
59 42 -35 33 -1 66 62 20
67 50 -28 47 9 80 69 27
67 50 -28 52 13 95 80 42
64 55 -24 50 19 97 90 43
68 61 -28 53 26 100 97 44
66 68 -22 67 30 107 109 53
74 76 -32 66 38 118 125 70
85 83 -30 72 48 134 135 80
101 96 -28 78 60 155 142 82
97 97 -29 83 60 161 146 91
94 96 -43 81 59 173 157 97
106 103 -43 87 70 181 163 108
118 113 -47 93 77 194 173 116
115 130 -56 103 91 193 183 118
113 137 -56 105 98 200 192 126
114 142 -52 105 98 204 197 130
121 142 -55 109 98 209 199 135
123 142 -43 113 108 212 210 142
128 153 -50 117 118 226 219 145
125 153 -45 125 126 229 217 157
133 156 -49 125 133 232 228 158
134 165 -45 131 140 235 236 168
132 167 -45 146 141 246 237 170
132 176 -43 138 146 249 234 169
137 183 -40 144 150 256 230 170
130 188 -47 151 152 252 229 168
136 187 -47 156 159 255 232 171
137 189 -42 154 172 252 238 169
143 194 -44 159 180 258 234 163
136 189 -52 156 180 257 231 167
135 173 -51 157 182 248 226 161
132 178 -41 149 173 242 232 159
139 191 -32 157 176 245 222 160
141 181 -15 168 183 237 219 161
132 169 -24 170 171 222 214 151
120 157 -25 152 169 214 192 140
121 152 -13 159 169 205 178 126
113 150 -19 143 161 191 171 117
100 136 -21 138 162 189 154 108
92 140 -32 139 157 179 147 104
99 147 -21 140 159 171 142 101
92 136 -11 135 150 159 142 91
84 136 -13 136 145 154 132 82
83 116 -6 123 143 140 119 76
82 92 1 114 136 125 97 67
62 88 6 107 119 110 88 64
53 85 5 100 113 102 84 54
49 75 16 92 106 96 82 48
52 79 27 93 104 87 75 44
49 72 20 81 98 81 62 36
38 61 13 81 84 76 56 32
26 49 11 66 65 65 40 23
29 45 15 49 67 54 23 12
33 47 4 48 67 41 24 11
26 47 7 53 68 34 17 9
19 36 16 48 66 22 11 0
12 32 28 34 57 15 2 -6
10 33 47 37 46 8 1 -1
2 37 41 40 42 9 0 -4
3 27 43 28 38 15 -9 -5
2 15 37 25 28 6 -14 -14
-4 11 27 16 16 1 -24 -15
-7 2 30 15 17 0 -23 -19
-4 3 26 20 20 -9 -21 -25
-6 9 31 19 24 -10 -21 -25
-6 10 36 19 22 -12 -21 -22
0 13 30 17 24 -15 -22 -20
-3 6 28 16 23 -11 -29 -22
-12 -2 28 16 25 -8 -38 -33
-10 0 37 20 21 -18 -38 -31
-10 -4 32 16 18 -18 -37 -29
-19 -11 31 13 19 -13 -42 -29
-17 -6 37 14 17 -15 -32 -24
-19 -9 47 12 8 -17 -26 -24
-25 -14 45 11 2 -21 -33 -27
-24 -22 41 4 -2 -26 -36 -29
-23 -25 36 3 2 -24 -38 -35
-21 -20 38 8 2 -24 -44 -33
-25 -18 40 8 5 -21 -48 -35
-23 -17 44 14 16 -22 -47 -33
-19 -14 42 16 13 -25 -46 -34
-23 -10 43 15 13 -19 -42 -37
-25 -7 44 18 14 -21 -44 -32
-22 -4 47 18 7 -19 -41 -31
-22 -1 45 17 6 -20 -41 -36
-23 -5 41 21 6 -25 -44 -33
-25 -7 39 19 11 -22 -43 -34
-25 -9 44 18 13 -24 -43 -36
-23 -13 42 16 11 -23 -48 -36
-28 -15 40 19 8 -25 -48 -35
-31 -12 40 19 6 -27 -43 -35
-32 -14 42 18 11 -24 -42 -33
-31 -6 45 19 13 -22 -41 -29
-33 -6 50 18 8 -25 -38 -26
-38 -9 48 19 6 -25 -39 -25
-37 -5 49 19 6 -24 -43 -27
-39 -5 49 19 6 -20 -44 -31
-38 -6 45 19 9 -19 -45 -29
-38 -5 44 18 10 -18 -47 -30
-33 0 40 18 10 -20 -46 -31
-28 5 45 20 8 -21 -44 -26
-28 6 44 22 15 -20 -40 -26
-31 7 41 22 13 -21 -39 -26
-27 8 44 25 15 -17 -38 -23
-26 8 45 24 18 -17 -38 -23
-25 10 46 27 19 -16 -35 -22
-28 5 46 31 19 -14 -28 -20
-29 3 48 31 21 -12 -26 -20
-26 4 53 28 24 -10 -27 -19
-29 1 52 30 24 -7 -28 -16
-33 0 52 28 21 -8 -26 -16
-36 0 51 25 20 -11 -29 -18
-38 1 50 25 19 -11 -28 -19
-40 1 45 24 19 -14 -29 -19
-44 2 46 22 20 -10 -26 -15
-39 5 48 23 22 -10 -23 -12
-35 2 50 22 21 -7 -26 -10
-36 2 51 20 22 -5 -23 -9
-37 7 46 21 18 -8 -20 -12
-35 4 48 22 16 -6 -24 -11
-31 6 50 20 15 -5 -23 -8
-25 12 48 22 24 -6 -22 -7
-26 6 49 25 22 -5 -25 -10
-23 9 47 25 19 -4 -24 -15
-17 10 47 22 15 -9 -27 -13
-17 6 44 20 14 -9 -27 -11
-18 5 42 22 12 -9 -23 -11
-19 6 40 23 18 -14 -22 -15
-17 8 49 22 26 -9 -20 -10
-17 7 54 24 26 -6 -14 -5
-22 1 52 19 23 -7 -11 -8
-26 0 51 19 17 -1 -12 -5
-24 4 50 18 21 -1 -12 -3
-23 3 52 15 23 -7 -13 -5
-33 -1 53 14 22 -6 -12 -8
-37 1 54 16 24 -7 -16 -8
-31 1 55 13 20 -5 -19 -8
-32 2 52 7 18 0 -22 -12
-39 3 47 6 14 -4 -24 -16
-35 6 37 5 8 -9 -24 -15
-26 7 36 8 14 -13 -27 -11
-18 12 37 8 17 -16 -25 -15
-21 15 37 10 11 -10 -26 -19
-25 10 42 22 19 -7 -27 -13
-16 5 39 12 18 -17 -32 -10
-16 8 33 2 9 -14 -28 -16
-26 6 32 8 7 -13 -25 -20
-24 2 34 10 11 -20 -25 -21
-18 6 41 9 16 -19 -24 -18
-21 4 45 8 13 -16 -30 -18
-21 4 40 4 5 -14 -25 -15
-28 -2 34 1 5 -8 -26 -13
-29 -10 34 3 8 -17 -31 -18
-26 -8 30 -2 0 -25 -29 -21
-38 -14 30 0 -2 -21 -28 -25
-37 -16 39 7 0 -28 -34 -25
-28 -8 44 1 1 -26 -32 -21
-32 -2 44 -3 4 -23 -28 -23
-35 -2 44 -1 2 -26 -33 -21
-31 0 39 -7 -1 -22 -36 -20
-30 -6 35 -4 -3 -23 -42 -25
-28 -1 32 -2 -2 -28 -45 -26
-28 4 35 -5 -2 -32 -39 -26
-25 4 43 8 3 -30 -33 -21
-18 4 40 6 0 -31 -31 -14
-18 0 34 -5 -6 -32 -29 -19
-24 -10 28 -1 -9 -38 -36 -24
-21 -16 22 -2 -8 -40 -39 -24
-21 -15 22 -4 -2 -34 -36 -30
-26 -17 22 -2 -2 -34 -42 -29
-25 -14 29 -1 -2 -29 -39 -21
-29 -12 33 0 4 -29 -34 -18
-38 -14 34 2 3 -32 -33 -18
-37 -11 37 -2 -6 -27 -30 -20
-41 -13 35 0 -10 -23 -30 -25
-38 -15 39 3 -9 -30 -39 -21
-33 -15 38 -4 -7 -33 -36 -19
-37 -12 36 -5 -1 -32 -33 -22
-31 -11 43 -1 3 -29 -32 -18
-27 -12 45 0 1 -22 -31 -17
-31 -15 40 3 -5 -24 -34 -22
-34 -19 35 0 -2 -22 -39 -23
-28 -12 36 0 2 -25 -35 -21
-23 -5 41 4 1 -27 -29 -23
-27 -7 43 4 -1 -20 -31 -18
-29 -15 41 -1 0 -24 -31 -15
-30 -23 35 0 -3 -28 -32 -24
-28 -25 36 2 -8 -26 -34 -25
-30 -23 38 2 0 -21 -29 -23
-31 -23 37 1 -1 -19 -29 -21
-25 -26 44 1 0 -24 -29 -19
-26 -22 45 7 3 -25 -24 -18
-31 -10 44 13 4 -20 -22 -19
-28 -13 49 15 6 -13 -25 -23
-25 -16 44 10 8 -16 -30 -22
-25 -12 40 6 2 -24 -38 -20
-27 -18 39 5 -2 -24 -37 -21
-33 -20 38 0 1 -26 -32 -25
-27 -12 42 1 6 -20 -32 -23
-21 -19 45 6 -1 -14 -29 -23
-24 -25 50 8 -3 -19 -28 -16
-26 -26 54 7 1 -25 -33 -16
-28 -21 42 7 -1 -26 -30 -18
-25 -14 42 2 0 -19 -25 -20
-24 -9 46 1 0 -15 -29 -19
-14 -16 45 -2 0 -18 -31 -14
-10 -25 35 2 0 -18 -27 -22
-21 -27 41 9 -4 -17 -26 -29
-24 -27 53 17 11 -10 -24 -20
-17 -19 56 28 18 -4 -27 -19
-12 -10 51 31 16 0 -25 -18
-20 -6 40 28 25 -1 -17 -24
-25 -2 42 22 22 -9 -18 -21
-20 1 53 28 12 -13 -12 -16
-16 0 50 23 21 -12 -10 -13
-26 -5 53 13 21 -15 -12 -12
-22 -2 59 20 25 -9 -9 -5
-24 5 67 26 34 2 -10 -2
-14 11 63 20 30 0 -10 -1
-12 0 56 12 26 -3 -12 1
1 0 49 7 16 -19 -11 0
2 15 46 11 8 -36 -7 8
3 10 42 14 17 -24 -6 20
1 12 31 24 31 -9 0 16
10 18 33 22 36 9 4 18
16 22 37 26 37 18 18 22
14 23 31 31 38 17 23 29
15 12 17 23 40 21 18 28
20 15 15 22 36 13 20 25
18 26 15 6 23 8 22 28
9 30 22 3 24 14 15 27
13 40 21 23 43 14 12 36
14 39 16 11 37 7 9 27
10 47 19 11 31 12 14 25
12 55 24 10 30 11 15 27
24 55 22 13 26 8 13 25
18 44 13 6 13 0 5 22
5 33 9 -3 11 -2 -4 21
-4 31 6 -6 -6 -11 -3 15
-7 29 4 -11 -19 -18 -3 11
-15 25 9 -7 -10 -20 -2 10
-9 25 2 -14 -11 -26 -4 6
-19 13 6 -14 -20 -20 -7 5
-27 13 10 -16 -32 -18 -19 15
-22 23 12 -28 -33 -23 -26 5
-10 25 14 -17 -27 -22 -18 13
-11 21 7 -19 -34 -28 -16 5
-25 14 7 -27 -28 -26 -21 -5
-30 -1 0 -24 -41 -32 -20 -3
-24 0 12 -18 -48 -44 -34 -7
-38 -3 33 -21 -50 -50 -36 -7
-46 -11 29 -24 -57 -49 -32 -10
-30 -16 22 -15 -55 -47 -33 -15
-33 -28 18 -22 -59 -37 -29 -20
-31 -23 23 -32 -56 -41 -28 -15
-34 -9 31 -14 -49 -50 -28 0
-33 0 29 -15 -45 -43 -21 3
-32 0 30 -19 -50 -37 -22 0
-39 -3 26 -24 -54 -37 -26 -3
-37 -14 34 -24 -47 -37 -32 -13
-32 -30 27 -28 -55 -47 -38 -5
-34 -25 24 -29 -60 -57 -41 -18
-37 -6 29 -28 -66 -65 -35 -13
-36 -18 25 -40 -64 -59 -44 -14
-37 -3 21 -38 -62 -58 -42 -3
-60 -12 52 -11 -72 -75 -52 -5
-72 -14 60 30 -62 -72 -67 -26
-48 -17 54 19 -82 -65 -55 -26
-34 -5 64 34 -66 -64 -62 -37
-32 -4 80 4 -86 -50 -65 -67
-20 -7 73 7 -74 -61 -58 -27
-52 -23 92 4 -50 -43 -32 -19
-47 24 95 -9 -51 -37 -20 -33
-28 43 87 -7 -56 -26 -31 -29
-24 11 58 -12 -36 -4 -19 -32
38 0 65 -13 -2 68 3 -28
133 45 33 120 127 106 44 1
230 101 37 196 316 262 157 95
369 173 3 289 479 455 283 171
465 206 -39 372 619 591 413 283
515 273 -69 389 686 666 524 358
558 320 -94 411 698 718 578 368
588 322 -72 472 717 722 572 439
605 367 -55 441 752 707 626 505
606 462 -21 477 752 714 649 552
559 476 -14 476 744 712 702 614
507 518 30 411 684 659 693 653
421 518 64 354 590 522 628 603
333 445 90 201 451 397 489 534
240 374 63 50 263 202 351 452
135 332 65 -122 70 6 233 347
43 305 -2 -248 -73 -111 117 288
29 287 -10 -346 -133 -171 54 263
-14 275 -50 -366 -140 -195 52 236
-54 232 -61 -406 -148 -182 35 195
-55 203 -85 -400 -178 -190 0 147
-104 141 -100 -445 -201 -172 -19 106
-99 123 -148 -461 -209 -185 -60 76
-111 84 -146 -468 -188 -164 -57 69
-93 97 -173 -444 -177 -147 -57 77
-79 78 -168 -427 -191 -136 -34 74
-55 71 -188 -386 -194 -140 -44 66
-76 39 -175 -379 -221 -138 -43 40
-54 34 -172 -345 -214 -154 -61 18
-58 -16 -171 -324 -222 -141 -66 -2
-29 -21 -163 -286 -190 -129 -84 -17
-43 -42 -147 -241 -196 -118 -62 -24
-30 -39 -127 -211 -156 -92 -62 -15
-28 -39 -108 -175 -151 -93 -41 -15
-17 -37 -77 -147 -127 -71 -30 -4
-9 -33 -78 -115 -130 -67 -16 -5
-2 -16 -45 -97 -128 -60 -19 -4
1 -25 -42 -81 -113 -73 -20 -5
5 -7 -36 -61 -101 -63 -23 -3
8 -12 -40 -58 -86 -49 -19 -6
0 -4 -34 -42 -70 -35 -7 -12
9 3 -30 -36 -55 -37 -15 -7
1 -2 -20 -35 -54 -37 -6 -21
2 -1 -16 -34 -56 -61 -3 -18
-6 -10 -11 -38 -59 -56 -2 -18
-16 -4 -5 -34 -44 -47 -4 -20
-15 -14 13 -40 -48 -42 -2 -8
-17 -8 9 -41 -50 -50 -4 -16
-23 -25 22 -40 -55 -50 -13 -3
-18 -36 15 -41 -61 -51 -7 -2
-22 -35 3 -51 -67 -50 -9 -12
-31 -41 -1 -56 -68 -49 -23 -19
-26 -47 -22 -57 -68 -56 -28 -21
-33 -44 -22 -53 -66 -51 -22 -25
-29 -33 -36 -57 -62 -59 -22 -34
-30 -28 -25 -52 -51 -48 -32 -25
-28 -30 -21 -48 -45 -48 -22 -23
-38 -34 -22 -55 -43 -46 -22 -33
-40 -33 -15 -51 -52 -38 -24 -17
-42 -36 -17 -49 -50 -39 -18 -23
-38 -33 -8 -46 -45 -33 -19 -20
-41 -33 -2 -50 -47 -34 -13 -21
-44 -40 -1 -49 -51 -34 -15 -25
-41 -47 0 -46 -57 -40 -13 -23
-38 -47 -4 -47 -53 -37 -14 -29
-39 -43 -11 -46 -51 -36 -19 -28
-43 -49 -28 -55 -46 -31 -26 -34
-42 -51 -26 -55 -37 -30 -26 -38
-37 -47 -31 -49 -43 -39 -27 -34
-45 -50 -33 -51 -44 -32 -27 -33
-48 -50 -28 -48 -41 -25 -17 -30
-43 -54 -25 -52 -39 -24 -17 -28
-43 -60 -19 -48 -49 -19 -17 -26
-56 -62 -27 -49 -62 -25 -12 -35
-60 -64 -27 -55 -64 -32 -16 -43
-54 -53 -18 -54 -59 -29 -9 -32
-46 -46 -20 -47 -48 -25 -9 -30
-47 -45 -18 -42 -40 -17 -7 -27
-43 -40 -24 -44 -38 -8 -8 -28
-31 -41 -31 -49 -44 -22 -16 -27
-25 -43 -36 -50 -46 -22 -17 -24
-33 -35 -49 -53 -54 -28 -15 -31
-33 -37 -51 -61 -58 -35 -21 -33
-27 -37 -53 -61 -61 -34 -19 -22
-18 -31 -55 -63 -56 -39 -14 -28
-23 -31 -47 -51 -56 -34 -11 -24
-27 -38 -54 -45 -45 -26 -10 -22
-24 -38 -56 -50 -42 -29 -11 -21
-19 -33 -44 -49 -56 -30 -8 -19
-26 -28 -34 -36 -52 -29 -2 -18
-29 -30 -20 -20 -42 -21 -3 -22
-20 -30 -11 -17 -47 -10 3 -16
-24 -31 -5 -24 -61 -1 0 -28
-26 -46 -3 -24 -74 -7 -9 -21
-18 -57 -14 -33 -73 -19 -14 -31
-5 -64 -16 -27 -71 -43 -21 -38
-3 -63 -24 -38 -71 -61 -33 -45
0 -65 -27 -38 -80 -65 -28 -36
0 -60 -22 -24 -66 -69 -24 -24
18 -52 -28 -29 -55 -71 -14 -13
24 -42 -37 -32 -51 -59 2 -9
34 -39 -45 -29 -37 -53 11 5
50 -28 -44 -21 -31 -44 22 17
67 -13 -49 -14 -25 -31 30 27
60 -20 -45 -8 -16 -28 25 25
64 -10 -48 -8 -17 -20 35 37
65 -9 -42 -5 -7 -10 42 33
68 -20 -38 5 -7 -1 40 50
67 -19 -44 0 -7 0 48 44
68 -17 -52 5 -9 7 60 43
68 -22 -50 14 -11 14 62 53
92 -11 -50 6 -1 22 73 73
107 1 -55 9 14 29 90 78
122 14 -56 17 17 46 98 89
121 16 -58 23 28 53 104 100
124 20 -73 16 31 58 117 100
141 37 -68 25 35 75 125 112
159 45 -65 29 52 91 134 133
157 63 -67 37 70 90 149 130
155 69 -71 40 75 94 155 137
149 72 -64 47 78 103 163 144
154 75 -75 49 82 108 173 146
163 77 -69 56 88 114 174 151
171 83 -77 62 100 131 182 156
164 92 -86 62 101 129 188 168
173 101 -92 58 107 135 201 175
182 114 -90 68 106 145 213 194
191 123 -97 76 113 166 212 200
194 133 -97 76 129 172 222 205
200 139 -105 86 141 176 220 198
192 146 -104 97 145 184 217 198
189 144 -108 103 148 199 230 202
190 145 -96 110 163 202 240 213
195 155 -97 115 179 219 237 209
193 155 -104 122 181 230 247 214
194 156 -108 125 188 234 259 213
193 155 -96 122 182 241 267 226
189 159 -102 125 184 250 265 218
174 157 -92 127 184 251 263 218
160 159 -75 138 198 258 254 203
155 157 -58 147 193 252 243 191
143 151 -53 158 193 257 234 179
135 148 -45 156 193 258 227 173
126 142 -44 157 195 249 209 154
116 139 -48 157 180 239 194 149
113 137 -44 151 177 228 181 139
104 128 -37 136 164 204 182 135
94 125 -40 139 157 198 172 118
86 114 -26 142 151 190 163 112
78 107 -18 141 152 190 158 104
75 95 -19 125 136 178 140 98
77 89 -14 129 143 167 120 87
68 86 -17 117 133 154 120 81
64 87 -17 114 126 141 106 70
51 71 -11 110 121 136 91 63
50 67 -12 103 118 133 85 55
36 62 -7 96 106 122 84 47
21 49 3 96 107 114 76 45
24 38 9 84 95 108 74 34
21 31 6 81 84 104 67 22
12 12 3 64 63 86 53 24
15 17 5 46 60 64 39 21
14 25 0 42 57 52 32 19
15 25 6 44 59 49 30 14
6 24 8 44 57 50 22 11
-7 12 5 43 46 50 11 4
-6 9 10 37 35 50 3 -3
0 16 12 34 35 42 1 -3
5 5 8 40 38 29 4 -7
3 -1 1 36 30 23 1 -8
0 -10 0 17 18 10 -10 -11
0 -16 -4 9 6 1 -24 -16
-6 -22 -9 2 0 -2 -29 -18
-18 -24 0 3 5 4 -28 -24
-13 -16 4 3 4 4 -28 -24
-10 -19 6 6 1 5 -31 -24
-17 -24 8 9 -2 6 -34 -28
-21 -21 7 4 -6 -3 -30 -29
-18 -17 8 -5 -14 0 -34 -33
-18 -16 8 -10 -15 -3 -47 -38
-21 -18 1 -11 -11 -14 -50 -40
-26 -23 -8 -16 -17 -18 -44 -40
-20 -19 4 -8 -17 -18 -44 -42
-16 -14 16 -2 -8 -15 -42 -39
-16 -23 22 -9 -15 -12 -41 -38
-25 -38 7 -7 -26 -22 -48 -45
-33 -39 1 -14 -28 -21 -56 -45
-26 -26 4 -16 -16 -20 -58 -47
-26 -12 3 -2 -10 -24 -53 -47
-31 -11 0 -1 -13 -23 -51 -46
-30 -14 0 -8 -15 -28 -55 -50
-28 -22 5 -10 -15 -31 -61 -51
-32 -29 10 -11 -18 -31 -58 -50
-37 -31 1 -13 -19 -27 -59 -51
-39 -31 8 -10 -24 -32 -59 -46
-28 -25 12 -10 -22 -38 -53 -40
-32 -27 10 -12 -12 -34 -54 -41
-43 -26 12 -7 -16 -37 -50 -40
-42 -29 16 -14 -24 -36 -53 -40
-37 -32 13 -21 -27 -36 -63 -40
-39 -27 5 -21 -25 -36 -62 -39
-40 -24 0 -16 -23 -34 -55 -40
-37 -26 3 -13 -13 -34 -55 -42
-35 -24 9 -16 -10 -30 -60 -44
-34 -22 5 -13 -11 -32 -60 -44
-40 -25 6 -10 -16 -32 -60 -44
-40 -19 10 -10 -15 -30 -59 -45
-30 -8 14 -10 -14 -33 -61 -38
-26 -6 19 -8 -16 -31 -54 -36
-30 -11 13 -6 -23 -36 -52 -37
-33 -19 11 -2 -21 -37 -56 -39
-32 -21 16 -1 -15 -34 -53 -40
-32 -19 17 -3 -12 -36 -53 -40
-35 -22 13 -6 -11 -32 -54 -36
-38 -20 7 -9 -9 -28 -53 -33
-32 -12 10 -15 -9 -31 -52 -34
-32 -16 9 -15 -12 -34 -54 -35
-43 -16 5 -15 -18 -35 -52 -38
-44 -17 10 -16 -13 -41 -51 -38
-43 -21 16 -14 -8 -37 -52 -30
-43 -12 19 -16 -9 -32 -56 -35
-54 -15 22 -17 -14 -29 -56 -35
-55 -18 25 -17 -12 -31 -55 -31
-48 -12 24 -19 -12 -41 -57 -38
-42 -8 25 -23 -16 -39 -56 -39
-37 -10 24 -19 -19 -36 -55 -35
-39 -10 17 -21 -15 -39 -61 -38
-34 -15 17 -28 -15 -46 -69 -39
-32 -9 11 -24 -12 -44 -65 -41
-36 -1 10 -21 -9 -42 -63 -41
-30 -6 11 -20 -7 -42 -60 -42
-20 -13 12 -18 -6 -42 -59 -37
-29 -14 9 -22 -8 -42 -53 -43
-35 -15 16 -22 -7 -35 -48 -39
-35 -20 23 -17 -10 -33 -48 -29
-36 -19 23 -23 -6 -33 -50 -32
-37 -22 22 -29 -9 -33 -53 -31
-40 -26 21 -26 -10 -36 -50 -36
-44 -28 20 -26 -9 -35 -57 -43
-44 -29 21 -30 -12 -34 -57 -43
-43 -25 17 -32 -11 -39 -58 -46
-41 -22 15 -35 -14 -42 -65 -43
-37 -18 8 -40 -14 -38 -64 -44
-37 -13 10 -35 -11 -36 -64 -47
-34 -13 9 -34 -16 -40 -66 -50
-34 -15 8 -37 -19 -40 -71 -51
-31 -8 13 -34 -12 -39 -65 -46
-26 -8 14 -37 -11 -42 -64 -43
-25 -7 18 -36 -16 -40 -62 -45
-26 -11 16 -34 -21 -49 -65 -53
-30 -18 14 -35 -29 -49 -69 -56
-30 -17 12 -38 -33 -47 -66 -53
-26 -17 5 -36 -29 -48 -70 -57
-25 -18 10 -33 -23 -46 -69 -54
-27 -23 9 -36 -26 -49 -67 -54
-30 -29 3 -37 -28 -52 -67 -57
-33 -35 0 -42 -34 -49 -72 -54
-37 -33 2 -40 -33 -45 -71 -56
-38 -28 5 -33 -32 -51 -68 -55
-41 -29 8 -37 -30 -47 -69 -54
-41 -29 11 -41 -34 -46 -70 -54
-37 -33 6 -43 -37 -51 -72 -55
-35 -33 6 -43 -36 -50 -74 -56
-36 -29 6 -43 -37 -53 -77 -61
-37 -27 1 -44 -36 -53 -83 -63
-33 -24 3 -44 -40 -54 -83 -61
-28 -20 2 -42 -41 -55 -77 -61
-31 -22 0 -41 -40 -59 -78 -58
-28 -22 0 -42 -40 -54 -77 -61
-25 -22 -1 -45 -41 -57 -80 -64
-27 -24 -5 -47 -45 -61 -81 -61
-28 -23 -8 -47 -46 -63 -80 -62
-26 -25 -6 -45 -42 -62 -80 -64
-26 -27 -3 -43 -39 -60 -79 -65
-28 -32 0 -41 -43 -59 -80 -61
-31 -37 -8 -43 -46 -61 -77 -58
-36 -38 -8 -46 -47 -60 -79 -60
-38 -34 -6 -42 -43 -57 -77 -62
-40 -35 -6 -39 -42 -60 -76 -62
-43 -38 -7 -41 -45 -57 -76 -61
-42 -37 -8 -44 -49 -58 -81 -62
-42 -40 -3 -46 -49 -56 -84 -64
-46 -38 -2 -47 -51 -58 -82 -62
-48 -32 -5 -48 -52 -61 -84 -63
-43 -33 -3 -51 -50 -60 -88 -64
-38 -35 -1 -49 -50 -62 -88 -64
-39 -29 -1 -43 -44 -65 -85 -66
-38 -24 0 -43 -45 -69 -85 -62
-32 -23 4 -44 -48 -59 -83 -60
-27 -25 2 -47 -54 -58 -83 -59
-28 -29 -2 -50 -53 -61 -79 -52
-28 -32 -11 -49 -48 -65 -79 -54
-25 -32 -8 -46 -44 -66 -80 -63
-26 -32 -4 -46 -40 -61 -76 -64
-34 -35 -7 -43 -43 -58 -83 -62
-35 -36 -4 -36 -45 -60 -82 -62
-34 -36 -5 -40 -45 -54 -79 -65
-32 -34 -5 -38 -43 -47 -83 -61
-32 -37 -8 -37 -49 -53 -78 -63
-32 -40 -12 -42 -48 -56 -78 -63
-31 -36 -4 -36 -46 -62 -84 -57
-36 -33 -1 -42 -50 -59 -81 -62
-42 -34 0 -48 -47 -50 -81 -60
-35 -33 -1 -38 -42 -48 -81 -60
-29 -27 -3 -37 -51 -43 -78 -69
-26 -30 0 -40 -52 -47 -80 -56
-25 -32 1 -37 -41 -54 -82 -55
-23 -16 -12 -38 -42 -56 -77 -64
-24 -17 -15 -35 -40 -49 -78 -61
-26 -19 -9 -37 -36 -46 -82 -60
-22 -15 -7 -46 -44 -47 -78 -62
-21 -26 -18 -35 -48 -38 -76 -63
-25 -32 -12 -29 -51 -42 -76 -70
-30 -21 0 -27 -43 -45 -74 -63
-28 -27 12 -24 -38 -47 -79 -60
-23 -28 9 -23 -38 -48 -82 -63
-36 -23 2 -26 -34 -51 -82 -76
-41 -18 7 -25 -36 -54 -87 -75
-35 -3 15 -23 -41 -52 -84 -72
-33 1 17 -30 -44 -47 -79 -62
-31 -4 14 -38 -47 -51 -79 -51
-21 -6 14 -41 -38 -50 -84 -54
-32 -8 24 -46 -37 -53 -78 -65
-26 -6 15 -46 -41 -61 -75 -62
-26 -15 14 -42 -33 -58 -84 -58
-21 -11 13 -40 -33 -56 -69 -54
-18 8 3 -43 -30 -58 -59 -51
-16 17 11 -39 -11 -48 -61 -31
-11 15 13 -34 -17 -39 -45 -24
0 20 2 -39 -17 -36 -45 -27
-7 25 5 -39 -12 -31 -43 -24
-2 31 6 -38 -7 -24 -42 -20
-4 36 2 -36 8 -13 -43 -24
-9 31 1 -34 10 -6 -43 -29
-2 38 -8 -39 -8 -13 -43 -28
2 41 -6 -37 -18 -28 -48 -29
6 42 -6 -26 -14 -38 -48 -29
21 46 -8 -34 -20 -42 -56 -28
20 49 -16 -33 -23 -36 -47 -27
30 53 -9 -33 -18 -33 -49 -23
36 57 -10 -22 -14 -28 -42 -20
15 50 -16 -18 -18 -24 -37 -23
14 43 -15 -19 -17 -23 -47 -23
17 47 -13 -28 -24 -29 -55 -23
18 50 -21 -49 -38 -38 -56 -33
8 43 -22 -54 -55 -46 -62 -35
4 35 -34 -57 -51 -51 -67 -28
-6 18 -45 -73 -61 -57 -71 -43
-10 18 -46 -78 -68 -70 -81 -39
-22 20 -41 -81 -63 -74 -80 -47
-7 30 -34 -77 -65 -81 -79 -48
-8 35 -28 -67 -73 -77 -75 -50
-18 22 -26 -73 -77 -62 -83 -46
-26 4 -42 -75 -86 -64 -82 -47
-23 10 -38 -72 -88 -67 -87 -49
-18 11 -27 -70 -69 -66 -93 -43
-29 16 -33 -76 -55 -73 -85 -48
-44 6 -37 -82 -71 -75 -78 -64
-54 0 -31 -77 -79 -63 -85 -57
-45 3 -25 -91 -73 -60 -86 -55
-38 5 -22 -96 -79 -64 -69 -55
-33 -1 -35 -95 -75 -72 -69 -51
-39 -8 -42 -96 -79 -73 -80 -52
-36 -15 -45 -107 -94 -80 -84 -60
-44 -30 -36 -105 -92 -84 -102 -64
-60 -26 -26 -111 -108 -88 -107 -68
-54 -24 -23 -106 -117 -96 -102 -66
-56 -35 -18 -93 -115 -106 -98 -60
-61 -41 -25 -105 -129 -102 -101 -74
-64 -40 -30 -103 -138 -97 -103 -73
-59 -49 -19 -99 -126 -105 -112 -65
-54 -38 -20 -115 -129 -102 -123 -68
-58 -32 -38 -122 -125 -105 -125 -71
-61 -38 -50 -120 -128 -107 -111 -76
-48 -44 -29 -115 -129 -107 -112 -77
-55 -53 -26 -109 -126 -103 -113 -66
-47 -51 -14 -103 -127 -111 -122 -78
-45 -33 -18 -93 -127 -124 -119 -61
-61 -74 -1 -74 -107 -120 -145 -84
-52 -54 15 -43 -94 -136 -151 -97
-108 -70 74 4 -115 -157 -161 -94
-118 -81 76 95 -95 -141 -175 -124
-66 -61 81 53 -76 -105 -143 -141
-41 -55 75 66 -20 -100 -147 -129
-27 -47 63 46 -45 -74 -117 -127
5 5 22 -13 -59 -53 -55 -88
4 42 22 -107 -63 -38 -17 -33
35 87 2 -177 -108 23 10 -27
68 112 -18 -182 -127 121 33 -1
107 147 -53 -165 -68 125 95 50
168 192 -46 -112 29 241 217 120
293 288 -39 139 271 398 287 205
424 364 -13 317 549 589 443 313
506 416 5 444 727 771 594 426
536 425 -24 512 822 846 703 487
539 446 -25 508 804 824 690 520
549 479 -41 520 766 783 669 543
538 482 -9 501 752 713 648 559
499 437 -18 463 719 608 634 586
474 473 21 410 599 492 580 575
371 456 21 323 448 314 534 543
226 427 73 145 270 189 388 499
130 407 54 -19 114 25 220 360
47 343 32 -181 21 -86 112 252
-19 280 -29 -262 -80 -158 18 247
-69 232 -55 -382 -191 -236 -37 188
-104 220 -117 -469 -238 -267 -95 129
-111 192 -143 -535 -267 -272 -95 103
-108 183 -180 -533 -280 -272 -92 103
-116 137 -190 -531 -272 -235 -99 70
-79 112 -206 -472 -252 -229 -121 31
-93 58 -190 -446 -251 -216 -114 12
-73 37 -192 -410 -229 -211 -137 -27
-69 0 -164 -361 -222 -186 -145 -27
-56 2 -163 -328 -220 -163 -145 -29
-72 -15 -138 -294 -242 -147 -113 -26
-40 0 -134 -266 -224 -127 -110 -35
-37 -20 -117 -232 -206 -113 -83 -42
-19 -22 -113 -191 -171 -100 -75 -32
-14 -53 -105 -185 -178 -95 -75 -38
0 -44 -88 -162 -155 -96 -89 -46
-7 -58 -88 -156 -165 -111 -85 -59
-9 -60 -71 -142 -141 -106 -83 -53
-14 -52 -70 -131 -136 -111 -68 -58
-6 -37 -47 -115 -138 -100 -63 -48
-12 -29 -52 -97 -135 -95 -48 -41
-14 -23 -26 -95 -139 -87 -53 -40
-15 -27 -32 -82 -122 -88 -54 -47
-22 -16 -21 -79 -126 -79 -54 -46
-15 -17 -21 -71 -105 -67 -62 -42
-25 -9 -16 -56 -97 -54 -55 -53
-26 0 -12 -51 -93 -49 -57 -62
-32 -9 3 -39 -87 -52 -54 -63
-35 -2 0 -42 -86 -68 -57 -58
-26 -5 0 -54 -85 -70 -51 -63
-20 -2 0 -49 -78 -72 -58 -61
-29 -14 1 -55 -77 -67 -51 -54
-34 -13 0 -59 -76 -64 -50 -61
-35 -26 12 -56 -77 -58 -54 -46
-38 -30 5 -54 -73 -54 -45 -46
-37 -25 -4 -61 -71 -51 -42 -48
-42 -19 6 -53 -61 -41 -40 -51
-42 -19 -7 -55 -71 -46 -48 -52
-52 -31 -12 -61 -79 -46 -55 -57
-49 -24 -19 -56 -73 -52 -53 -61
-42 -14 -11 -59 -56 -44 -57 -51
-42 -12 -12 -60 -43 -40 -49 -53
-49 -12 -13 -55 -44 -37 -39 -60
-54 -25 -3 -43 -53 -35 -44 -45
-56 -39 -8 -51 -61 -34 -38 -45
-51 -37 -8 -58 -66 -28 -38 -45
-46 -39 -5 -60 -59 -27 -41 -49
-50 -42 -16 -65 -63 -28 -39 -51
-51 -45 -21 -64 -73 -31 -37 -54
-55 -44 -19 -59 -69 -31 -45 -62
-57 -34 -9 -57 -62 -20 -45 -53
-55 -32 -12 -48 -42 -20 -39 -59
-57 -35 -7 -47 -34 -24 -43 -64
-51 -21 -16 -52 -50 -19 -41 -62
-46 -27 -25 -60 -61 -23 -44 -56
-41 -38 -25 -64 -63 -24 -46 -43
-37 -36 -33 -77 -69 -37 -46 -57
-42 -41 -29 -82 -78 -48 -48 -60
-38 -43 -34 -80 -81 -47 -40 -51
-42 -44 -39 -82 -75 -38 -41 -58
-50 -43 -37 -74 -75 -32 -36 -54
-48 -37 -44 -63 -61 -31 -34 -53
-51 -32 -41 -62 -44 -31 -39 -49
-41 -20 -36 -54 -49 -36 -29 -53
-43 -17 -33 -54 -52 -39 -36 -49
-53 -22 -19 -49 -51 -37 -42 -51
-59 -23 -20 -53 -65 -39 -41 -60
-71 -22 -14 -61 -72 -34 -47 -65
-73 -28 -20 -61 -75 -34 -49 -52
-55 -20 -39 -79 -72 -45 -53 -60
-45 -22 -29 -70 -73 -67 -60 -63
-51 -21 -44 -69 -67 -88 -71 -62
-49 -10 -62 -82 -82 -103 -70 -57
-33 -1 -57 -76 -68 -99 -65 -43
-11 12 -67 -72 -52 -97 -56 -29
-9 22 -78 -69 -31 -85 -42 -31
-4 21 -79 -57 -28 -69 -27 -10
7 25 -68 -56 -33 -54 -17 -7
15 32 -61 -53 -35 -39 -18 2
12 10 -66 -53 -28 -38 -24 -5
19 11 -69 -44 -32 -47 -23 0
19 4 -69 -56 -27 -50 -31 -18
13 -16 -62 -53 -42 -50 -32 -11
7 -19 -63 -51 -38 -57 -36 -17
7 -18 -58 -59 -46 -55 -30 -13
10 -21 -61 -71 -53 -53 -21 -13
31 -8 -55 -83 -45 -51 -8 7
45 1 -64 -84 -40 -46 4 11
61 13 -63 -78 -37 -35 17 26
63 20 -48 -77 -27 -33 19 32
64 27 -55 -92 -24 -22 31 38
73 40 -49 -81 -12 -3 36 50
83 39 -46 -76 0 4 48 66
85 57 -40 -74 8 4 66 59
86 60 -46 -74 10 8 76 72
84 58 -40 -69 11 15 83 74
99 69 -49 -76 18 18 94 85
104 77 -53 -81 27 27 100 88
113 92 -56 -77 39 47 107 97
108 105 -60 -75 42 47 116 111
110 109 -72 -76 48 63 126 119
124 127 -67 -56 47 74 137 134
133 131 -59 -49 57 93 145 140
135 140 -47 -39 73 95 162 144
148 148 -64 -39 76 103 164 152
141 152 -63 -35 81 114 167 156
144 157 -72 -38 79 115 183 163
141 162 -71 -34 90 112 188 170
147 169 -68 -29 102 126 191 170
143 171 -70 -30 107 128 203 180
149 170 -73 -28 120 136 208 181
151 181 -63 -17 116 144 214 191
163 199 -66 -12 124 156 224 203
157 206 -59 -7 134 159 226 216
157 217 -62 0 140 171 226 211
153 225 -60 4 148 171 227 216
158 211 -63 13 151 177 220 215
158 213 -53 14 155 177 228 207
159 211 -51 18 161 180 223 196
150 207 -55 33 163 178 219 206
150 216 -59 36 170 169 220 201
148 213 -50 23 169 168 217 194
151 216 -49 40 172 170 197 185
147 215 -51 31 167 165 191 175
145 210 -40 33 164 157 171 162
136 208 -43 41 160 153 163 159
126 207 -38 46 165 156 158 149
125 206 -21 45 163 151 169 153
122 209 -23 58 174 142 155 144
120 200 -18 55 169 139 143 133
117 181 -17 60 161 125 135 114
100 168 -18 59 143 120 128 106
107 174 -17 51 150 114 111 98
111 163 -29 44 143 109 104 92
106 157 -29 48 147 98 97 84
89 152 -33 38 134 87 91 81
86 160 -25 46 132 89 79 69
83 146 -15 51 118 82 68 64
67 135 -15 41 113 83 58 53
55 125 -24 40 103 76 54 47
52 115 -19 43 105 66 46 47
58 109 -7 26 87 58 42 41
47 114 -8 23 69 54 38 26
39 90 -2 27 67 46 26 32
43 84 2 20 63 35 22 30
45 91 0 8 49 35 17 19
30 88 5 11 55 33 3 7
29 86 2 9 54 28 -8 3
24 82 -2 7 46 18 -19 -9
28 83 0 4 34 17 -35 -16
24 83 -3 -6 21 17 -40 -20
12 68 -12 -13 13 3 -41 -29
6 51 -12 -18 8 -14 -47 -35
11 53 -12 -24 -9 -26 -39 -38
-6 45 -9 -13 -8 -24 -37 -43
-6 31 0 -11 -13 -24 -50 -39
2 42 0 -19 -7 -24 -44 -40
0 53 6 -22 -10 -21 -40 -34
-1 54 12 -15 -5 -22 -44 -30
1 52 18 -14 -5 -13 -49 -26
-1 43 -2 -12 -16 -16 -55 -42
-6 35 -10 -16 -17 -20 -71 -52
-6 35 -2 -17 -7 -24 -66 -52
-8 44 -3 -4 3 -30 -59 -53
-9 45 -7 -5 0 -25 -60 -42
-8 38 -8 -16 -11 -31 -55 -46
-11 33 -10 -15 -13 -39 -61 -53
-12 23 -11 -12 -14 -38 -62 -47
-16 25 -17 -12 -8 -32 -56 -52
-19 27 -8 -19 -12 -31 -60 -45
-15 27 0 -21 -12 -25 -57 -39
-22 33 2 -12 -3 -24 -54 -35
-31 38 5 -8 -2 -32 -51 -33
